timestamp,bicep_raw,tricep_raw,bicep_envelope,tricep_envelope,ratio_b_to_t,co_activation,label
17:58:46.521531,10.8,858.12,0.0,0.0,0.0,0.0,down
17:58:46.532188,9.03,853.83,0.4424999999999999,1.072499999999991,0.412587412587416,0.4424999999999999,down
17:58:46.543507,8.2,849.56,0.5716666666666667,2.138333333333359,0.2673421667965673,0.5716666666666667,down
17:58:46.552320,6.78,845.76,0.8874999999999995,3.0875000000000057,0.2874493927125499,0.8874999999999995,down
17:58:46.559803,9.91,841.01,0.8859999999999998,4.179999999999995,0.2119617224880384,0.8859999999999998,down
17:58:46.578482,17.64,837.26,2.1,5.216666666666659,0.4025559105431316,2.1,down
17:58:46.589576,14.59,832.57,2.468571428571429,6.355714285714271,0.3884018880647346,2.468571428571429,down
17:58:46.597021,15.66,828.87,2.823125,7.375624999999985,0.3827641725277527,2.823125,down
17:58:46.610722,14.5,824.67,2.9205555555555556,8.371666666666657,0.348861901917845,2.9205555555555556,down
17:58:46.622867,14.37,820.5,2.807,9.39799999999999,0.2986805703341139,2.807,down
17:58:46.634628,11.87,816.81,2.932,11.208499999999992,0.261587188294598,2.932,down
17:58:46.643824,16.78,812.62,3.0780000000000003,12.803999999999997,0.2403936269915652,3.0780000000000003,down
17:58:46.656212,22.75,808.92,3.8155,14.161999999999988,0.2694181612766561,3.8155,down
17:58:46.665023,19.11,804.29,4.0305,15.398,0.2617547733471879,4.0305,down
17:58:46.680402,16.16,800.67,3.9675,16.341500000000007,0.2427867698803658,3.9675,down
17:58:46.687062,13.78,796.55,3.285,17.118000000000006,0.1919032597266035,3.285,down
17:58:46.701518,14.3,792.48,2.895,17.628000000000007,0.1642273655547991,2.895,down
17:58:46.712588,12.3,788.88,2.578,17.949000000000012,0.1436291715415899,2.578,down
17:58:46.724478,13.62,784.8,2.2795,18.083000000000016,0.126057623181994,2.2795,down
17:58:46.732374,16.01,781.21,2.1865,17.959500000000002,0.1217461510621119,2.1865,down
17:58:46.744405,20.73,776.69,2.5260000000000007,17.931499999999993,0.1408694197362184,2.5260000000000007,down
17:58:46.758077,20.58,773.18,2.7409999999999997,17.871500000000005,0.1533726883585596,2.7409999999999997,down
17:58:46.769826,20.78,769.19,2.3899999999999997,17.851499999999987,0.1338823068089517,2.3899999999999997,down
17:58:46.779375,20.86,765.68,2.469,17.754499999999986,0.1390633360556479,2.469,down
17:58:46.791135,23.12,762.14,2.926499999999999,17.63699999999999,0.1659295798605205,2.926499999999999,down
17:58:46.805362,26.3,758.12,3.3564999999999996,17.50199999999999,0.1917780825048567,3.3564999999999996,down
17:58:46.815248,23.39,754.61,3.5419999999999994,17.330499999999983,0.2043795620437958,3.5419999999999994,down
17:58:46.822800,19.84,750.62,3.4199999999999995,17.239499999999975,0.1983816235969723,3.4199999999999995,down
17:58:46.834629,17.12,747.13,3.712,17.149499999999968,0.2164494591679061,3.712,down
17:58:46.843178,20.12,743.18,3.69,17.104499999999984,0.2157327019205474,3.69,down
17:58:46.860050,24.5,739.72,3.5934999999999997,16.98649999999999,0.2115503488064052,3.5934999999999997,down
17:58:46.862060,20.77,735.79,3.149,16.918999999999983,0.1861221112358888,3.149,down
17:58:46.880280,17.17,732.37,3.0439999999999996,16.804499999999997,0.1811419560236841,3.0439999999999996,down
17:58:46.892537,16.05,728.92,3.0059999999999993,16.695499999999992,0.1800485160672038,3.0059999999999993,down
17:58:46.904763,14.51,725.01,3.0705,16.658499999999993,0.1843203169553081,3.0705,down
17:58:46.913469,18.2,721.61,2.588,16.591499999999996,0.1559834855196938,2.588,down
17:58:46.925753,19.27,717.75,2.378000000000001,16.566999999999997,0.1435383593891471,2.378000000000001,down
17:58:46.938078,17.86,714.39,2.3035000000000005,16.511000000000003,0.1395130519047907,2.3035000000000005,down
17:58:46.949926,17.78,710.56,1.965,16.4735,0.1192824839894375,1.965,down
17:58:46.959421,16.68,707.24,2.0155000000000003,16.38549999999999,0.123005095968997,2.0155000000000003,down
17:58:46.971591,13.99,703.9,1.996,16.299,0.1224615007055647,1.996,down
17:58:46.979870,13.59,700.1,2.3244999999999996,16.21349999999999,0.1433681808369569,2.3244999999999996,down
17:58:46.994400,13.8,696.81,2.216500000000001,16.129499999999986,0.1374190148485695,2.216500000000001,down
17:58:47.007913,16.86,693.06,1.7860000000000007,16.089999999999986,0.1110006215040399,1.7860000000000007,down
17:58:47.014405,14.84,689.81,1.4320000000000006,16.02199999999998,0.089377106478592,1.4320000000000006,down
17:58:47.026911,14.38,686.1,1.4880000000000004,15.99749999999998,0.0930145335208627,1.4880000000000004,down
17:58:47.040665,21.01,682.89,1.959500000000001,15.920999999999982,0.1230764399221156,1.959500000000001,down
17:58:47.047974,23.95,679.22,2.7615000000000003,15.866999999999972,0.1740404613348462,2.7615000000000003,down
17:58:47.060882,24.4,675.61,3.6005000000000003,15.808999999999967,0.2277500158137774,3.6005000000000003,down
17:58:47.071707,22.62,672.49,4.163500000000001,15.748499999999968,0.2643743848620509,4.163500000000001,down
17:58:47.085041,25.64,668.91,4.4855,15.728999999999962,0.2851738826371677,4.4855,down
17:58:47.096677,21.35,665.82,4.1690000000000005,15.655499999999972,0.2662961898374378,4.1690000000000005,down
17:58:47.105113,18.49,662.26,4.1815,15.604499999999971,0.2679675734563752,4.1815,down
17:58:47.116342,15.58,659.2,4.7325,15.50549999999996,0.305214278804296,4.7325,down
17:58:47.130398,19.71,655.67,4.6865000000000006,15.43249999999997,0.3036773043900864,4.6865000000000006,down
17:58:47.142593,32.78,652.2,5.628,15.35899999999997,0.3664301061267017,5.628,down
17:58:47.148619,29.54,649.21,5.7284999999999995,15.285499999999969,0.3747669359850847,5.7284999999999995,down
17:58:47.160595,25.67,645.76,5.125500000000001,15.21099999999998,0.3369600946683326,5.125500000000001,down
17:58:47.177185,20.89,642.8,4.371,15.091999999999985,0.2896236416644583,4.371,down
17:58:47.188312,25.89,639.36,3.9335,15.002999999999986,0.2621808971539028,3.9335,down
17:58:47.196405,27.01,636.43,3.613,14.871999999999993,0.2429397525551373,3.613,down
17:58:47.208424,22.49,633.47,3.755,14.74999999999999,0.2545762711864408,3.755,down
17:58:47.217808,23.6,630.49,3.5895,14.613499999999988,0.24562904163958,3.5895,down
17:58:47.231470,20.25,627.5,3.468000000000001,14.486499999999989,0.2393952990715496,3.468000000000001,down
17:58:47.241676,18.14,624.05,3.9705,14.367999999999984,0.2763432628062364,3.9705,down
17:58:47.250399,24.96,621.56,2.9590000000000005,14.190499999999997,0.208519784362778,2.9590000000000005,down
17:58:47.264554,32.07,618.09,3.1125000000000003,14.096500000000002,0.2207994892349164,3.1125000000000003,down
17:58:47.277802,26.14,615.15,3.0825,13.984000000000004,0.2204304919908466,3.0825,down
17:58:47.285043,24.92,611.74,2.975,13.924,0.2136598678540649,2.975,down
17:58:47.297371,25.42,608.85,2.7835,13.862,0.2008007502524888,2.7835,down
17:58:47.309934,20.42,605.95,2.8175,13.821999999999992,0.2038417016350746,2.8175,down
17:58:47.322742,18.77,603.05,3.2075000000000005,13.777499999999998,0.232807113046634,3.2075000000000005,down
17:58:47.332177,26.15,600.14,3.225,13.728999999999996,0.2349042173501348,3.225,down
17:58:47.342172,31.17,596.78,3.3845,13.722500000000014,0.2466387320094732,3.3845,down
17:58:47.356829,25.48,593.94,2.7379999999999995,13.684000000000015,0.2000876936568252,2.7379999999999995,down
17:58:47.390775,20.44,590.64,3.171,13.731000000000003,0.2309372951715096,3.171,down
17:58:47.427173,20.41,587.86,2.868,13.71550000000001,0.2091064853632749,2.868,down
17:58:47.431192,25.01,585.06,2.6864999999999997,13.671000000000015,0.1965108624094796,2.6864999999999997,down
17:58:47.431192,35.02,582.26,3.665,13.57750000000002,0.2699318725833176,3.665,down
17:58:47.431192,31.53,579.45,4.2455,13.46600000000002,0.3152755086885485,4.2455,down
17:58:47.431192,27.07,576.64,3.987000000000001,13.33950000000002,0.2988867648712466,3.987000000000001,down
17:58:47.433374,23.96,574.28,3.6235,13.200500000000025,0.2744971781371912,3.6235,down
17:58:47.445021,19.26,570.96,4.101000000000001,13.14000000000002,0.3121004566210041,4.101000000000001,down
17:58:47.456274,15.5,568.17,4.4015,13.057000000000016,0.337098874167113,4.4015,down
17:58:47.465030,17.02,564.94,4.9165,13.021500000000014,0.3775678685251311,4.9165,down
17:58:47.479396,17.91,562.23,4.843000000000001,12.958500000000017,0.3737315275687768,4.843000000000001,down
17:58:47.489447,18.54,559.51,4.6739999999999995,12.896000000000017,0.3624379652605454,4.6739999999999995,down
17:58:47.504236,16.61,556.8,4.8985,12.832500000000016,0.3817260861094872,4.8985,down
17:58:47.508453,19.78,554.08,4.006,12.770000000000016,0.3137039937353167,4.006,down
17:58:47.523203,19.83,551.37,3.4705000000000013,12.707500000000028,0.2731064332087345,3.4705000000000013,down
17:58:47.535204,24.87,549.11,3.942,12.622500000000024,0.3122994652406411,3.942,down
17:58:47.546195,24.61,546.34,4.3275000000000015,12.586000000000013,0.3438344191959318,4.3275000000000015,down
17:58:47.556622,21.54,543.59,3.967,12.501000000000024,0.317334613230941,3.967,down
17:58:47.569018,18.36,540.86,3.148500000000001,12.419000000000016,0.2535228279249534,3.148500000000001,down
17:58:47.581961,15.79,538.14,2.9675000000000007,12.318500000000018,0.2408978365872465,2.9675000000000007,down
17:58:47.592120,17.43,535.43,2.7130000000000005,12.225000000000025,0.2219222903885477,2.7130000000000005,down
17:58:47.598676,14.53,532.3,2.8600000000000008,12.180500000000029,0.2348015270309095,2.8600000000000008,down
17:58:47.613359,12.79,529.69,3.2590000000000012,12.157500000000017,0.2680649804647334,3.2590000000000012,down
17:58:47.623872,20.85,526.65,3.346500000000001,12.195000000000016,0.2744157441574413,3.346500000000001,down
17:58:47.639019,18.62,524.57,3.2665000000000006,12.195000000000004,0.2678556785567855,3.2665000000000006,down
17:58:47.641846,15.04,521.97,2.9550000000000005,12.208500000000004,0.2420444772085022,2.9550000000000005,down
17:58:47.658437,12.48,519.38,2.7970000000000006,12.18850000000001,0.2294786068835376,2.7970000000000006,down
17:58:47.670413,10.13,516.81,3.0875000000000004,12.13950000000002,0.2543350220355035,3.0875000000000004,down
17:58:47.684912,8.25,514.24,3.661,12.09000000000002,0.3028122415219184,3.661,down
17:58:47.691381,9.09,511.68,3.781,12.039000000000016,0.3140626297865267,3.781,down
17:58:47.704908,15.41,509.13,3.783,11.964000000000004,0.316198595787362,3.783,down
17:58:47.716517,12.58,506.6,3.3395,11.846999999999998,0.2818857094623112,3.3395,down
17:58:47.728718,12.08,504.07,2.7565,11.739,0.2348155720248743,2.7565,down
17:58:47.738100,13.57,501.56,2.6849999999999996,11.594,0.2315853027427979,2.6849999999999996,down
17:58:47.746445,11.73,499.06,2.727,11.507000000000003,0.2369861823238027,2.727,down
17:58:47.761229,11.42,496.57,2.49,11.447000000000008,0.2175242421595176,2.49,down
17:58:47.774691,13.02,494.53,2.1885,11.366000000000014,0.1925479500263942,2.1885,down
17:58:47.781634,15.99,492.0,2.026,11.3115,0.1791097555585024,2.026,down
17:58:47.794880,18.5,489.48,1.9424999999999997,11.2575,0.1725516322451698,1.9424999999999997,down
17:58:47.807367,16.85,486.99,1.841,11.181,0.164654324300152,1.841,down
17:58:47.818961,13.82,484.96,1.7185,11.0855,0.155022326462496,1.7185,down
17:58:47.831546,19.63,482.44,2.3015,11.0185,0.2088759813041702,2.3015,down
17:58:47.839435,17.3,479.94,2.496,10.953000000000005,0.2278827718433305,2.496,down
17:58:47.852810,16.58,477.47,2.4214999999999995,10.889499999999998,0.2223701731025299,2.4214999999999995,down
17:58:47.864039,13.6,475.02,2.635,10.850500000000006,0.2428459517994561,2.635,down
17:58:47.876770,11.73,473.04,3.0419999999999994,10.787,0.2820061184759432,3.0419999999999994,down
17:58:47.885033,11.49,470.56,3.41,10.769499999999994,0.3166349412693256,3.41,down
17:58:47.896504,15.36,468.12,3.1049999999999995,10.746499999999996,0.2889312799516121,3.1049999999999995,down
17:58:47.909375,18.59,465.69,2.7969999999999997,10.719,0.2609385203843642,2.7969999999999997,down
17:58:47.921665,18.1,463.3,2.6545,10.709499999999997,0.2478640459405202,2.6545,down
17:58:47.930311,17.2,460.92,2.633,10.738499999999998,0.2451925315453741,2.633,down
17:58:47.942509,15.25,458.57,2.1114999999999995,10.733000000000004,0.1967297121028602,2.1114999999999995,down
17:58:47.955804,13.68,456.68,2.0345,10.6755,0.1905765537913915,2.0345,down
17:58:47.965971,14.16,453.85,2.0595,10.6635,0.193135462090308,2.0595,down
17:58:47.974319,12.88,451.56,1.9735,10.622999999999996,0.1857761460980891,1.9735,down
17:58:47.988147,14.18,449.28,1.5715,10.603500000000002,0.1482057811100108,1.5715,up
17:58:47.994778,12.2,447.47,1.3435,10.556,0.127273588480485,1.3435,down
17:58:48.011770,10.1,445.15,1.6895000000000002,10.508999999999997,0.1607669616519174,1.6895000000000002,down
17:58:48.020560,13.63,442.86,1.4565,10.438,0.1395382257137382,1.4565,down
17:58:48.032025,11.93,441.03,1.416,10.304000000000002,0.1374223602484471,1.416,down
17:58:48.043362,10.55,438.27,1.6555,10.226500000000003,0.1618833422969734,1.6555,down
17:58:48.056916,12.75,436.49,1.5900000000000003,10.1315,0.1569362878152297,1.5900000000000003,down
17:58:48.065041,12.06,434.21,1.469,10.088500000000003,0.1456113396441492,1.469,down
17:58:48.076836,11.35,431.96,1.4925000000000002,10.022500000000008,0.1489149413818906,1.4925000000000002,up
17:58:48.089452,10.75,429.73,1.4345000000000003,9.959500000000002,0.1440333350067774,1.4345000000000003,down
17:58:48.099925,9.9,427.53,1.5550000000000002,9.898,0.1571024449383714,1.5550000000000002,down
17:58:48.110615,19.58,425.79,2.0975,9.838500000000003,0.2131930680489911,2.0975,down
17:58:48.121702,18.94,423.55,2.385,9.7805,0.2438525637748581,2.385,down
17:58:48.131350,19.58,421.79,3.1144999999999996,9.7015,0.3210328299747461,3.1144999999999996,down
17:58:48.145922,18.25,419.53,3.5264999999999995,9.672500000000005,0.3645903334194881,3.5264999999999995,down
17:58:48.155033,23.24,417.31,4.029999999999999,9.596999999999998,0.419922892570595,4.029999999999999,down
17:58:48.168010,26.59,415.12,4.822999999999999,9.57,0.5039707419017763,4.822999999999999,down
17:58:48.180094,28.51,412.96,5.7065,9.5615,0.5968205825445798,5.7065,down
17:58:48.190976,29.23,410.81,6.593500000000001,9.547999999999996,0.6905634687892755,6.593500000000001,down
17:58:48.193313,26.74,408.7,7.002,9.527999999999995,0.7348866498740556,7.002,down
17:58:48.213147,26.93,407.05,7.0295000000000005,9.459499999999997,0.7431153866483432,7.0295000000000005,down
17:58:48.225308,27.29,404.45,6.298,9.462499999999997,0.6655746367239105,6.298,down
17:58:48.235631,24.43,402.4,5.827,9.4575,0.6161247687020883,5.827,down
17:58:48.242965,23.26,400.36,5.409000000000001,9.491499999999997,0.5698783121740507,5.409000000000001,down
17:58:48.257703,22.61,398.34,5.23,9.534999999999997,0.5485055060304145,5.23,down
17:58:48.269466,18.28,396.33,5.2945,9.542000000000002,0.5548627122196603,5.2945,down
17:58:48.281433,16.0,394.33,5.4535,9.496499999999996,0.5742642026009585,5.4535,down
17:58:48.291057,14.73,392.79,5.4399999999999995,9.384499999999992,0.5796792583515376,5.4399999999999995,down
17:58:48.302925,15.44,390.75,5.224500000000001,9.259499999999996,0.5642313299854206,5.224500000000001,down
17:58:48.315402,13.47,389.18,5.388999999999999,9.102999999999998,0.5920026364934637,5.388999999999999,down
17:58:48.326791,11.29,387.11,5.772499999999999,9.008499999999993,0.6407837042792922,5.772499999999999,down
17:58:48.333407,14.82,385.07,5.799999999999999,8.898499999999995,0.6517952463898412,5.799999999999999,down
17:58:48.347575,17.94,383.05,5.7985,8.821999999999992,0.6572772613919752,5.7985,down
17:58:48.359341,18.98,381.06,5.784000000000001,8.772999999999996,0.6592955659409556,5.784000000000001,down
17:58:48.372530,15.6,379.09,5.386500000000001,8.724999999999994,0.617363896848138,5.386500000000001,down
17:58:48.380078,17.36,377.14,4.732000000000001,8.677999999999997,0.5452869324729204,4.732000000000001,down
17:58:48.392962,18.51,375.65,4.072500000000001,8.609500000000002,0.4730239851327022,4.072500000000001,down
17:58:48.404858,15.81,373.67,3.171500000000001,8.589000000000004,0.3692513680288741,3.171500000000001,down
17:58:48.414758,15.19,372.16,2.4735000000000005,8.520499999999998,0.290299865031395,2.4735000000000005,down
17:58:48.423381,12.89,370.15,2.0575,8.501500000000004,0.2420161148032699,2.0575,down
17:58:48.431079,14.3,368.63,1.6130000000000002,8.456000000000007,0.1907521286660358,1.6130000000000002,down
17:58:48.449548,17.53,366.61,1.6175000000000004,8.412,0.192284831193533,1.6175000000000004,down
17:58:48.461193,20.4,364.63,1.7770000000000004,8.368500000000006,0.2123439087052636,1.7770000000000004,down
17:58:48.467953,17.87,362.69,1.5795,8.3245,0.1897411255931287,1.5795,down
17:58:48.480436,15.72,360.77,1.658,8.281,0.2002173650525298,1.658,down
17:58:48.495120,15.73,359.32,1.478,8.215999999999998,0.1798928919182084,1.478,down
17:58:48.506760,13.92,357.38,1.3595,8.198999999999995,0.1658129040126846,1.3595,down
17:58:48.514709,13.62,355.92,1.5325,8.134499999999992,0.1883951072592048,1.5325,up
17:58:48.526317,13.75,354.42,1.607,8.073999999999995,0.1990339360911569,1.607,down
17:58:48.540091,14.39,352.43,1.392,8.038999999999987,0.1731558651573581,1.392,down
17:58:48.552355,15.25,350.49,1.275,8.04849999999999,0.1584146114182769,1.275,down
17:58:48.564044,13.83,348.59,1.2795,8.049499999999995,0.158953972296416,1.2795,down
17:58:48.573192,13.26,347.16,0.9875000000000004,8.021999999999991,0.1230989778110198,0.9875000000000004,down
17:58:48.585219,13.75,345.25,0.8715000000000004,7.992999999999995,0.109032903790817,0.8715000000000004,down
17:58:48.596635,12.91,343.82,0.8730000000000002,7.894999999999999,0.1105763141228626,0.8730000000000002,down
17:58:48.609422,11.4,341.9,1.1040000000000003,7.828999999999996,0.1410141780559459,1.1040000000000003,down
17:58:48.614927,9.58,340.47,1.334,7.745499999999993,0.1722290362145764,1.334,down
17:58:48.630275,11.06,339.01,1.3949999999999998,7.691000000000003,0.181380834741906,1.3949999999999998,down
17:58:48.641880,10.99,337.07,1.4784999999999997,7.7065,0.1918510348407188,1.4784999999999997,down
17:58:48.654725,14.33,335.63,1.5364999999999998,7.668000000000006,0.2003781950965047,1.5364999999999998,down
17:58:48.663189,17.21,333.7,1.9254999999999995,7.630500000000007,0.2523425725706045,1.9254999999999995,up
17:58:48.673142,15.28,332.28,2.0459999999999994,7.57050000000001,0.270259560134733,2.0459999999999994,down
17:58:48.688223,17.21,330.37,2.344499999999999,7.536500000000006,0.3110860479002185,2.344499999999999,down
17:58:48.700040,20.06,328.51,2.975999999999999,7.503000000000009,0.3966413434626143,2.975999999999999,down
17:58:48.708790,18.12,327.14,3.219499999999999,7.491500000000002,0.4297537208836679,3.219499999999999,down
17:58:48.716505,16.58,325.29,3.049499999999999,7.497500000000002,0.4067355785261751,3.049499999999999,down
17:58:48.731792,18.86,323.93,2.8354999999999997,7.496500000000003,0.3782431801507368,2.8354999999999997,down
17:58:48.745365,22.54,322.08,3.1239999999999997,7.513,0.4158125915080526,3.1239999999999997,down
17:58:48.751705,20.73,320.28,3.220999999999999,7.5210000000000035,0.4282675176173378,3.220999999999999,down
17:58:48.765040,16.87,318.97,3.1759999999999997,7.522500000000003,0.4222000664672647,3.1759999999999997,down
17:58:48.776670,14.98,317.62,3.031999999999999,7.473000000000002,0.4057272848922786,3.031999999999999,down
17:58:48.789905,15.24,315.79,3.0549999999999993,7.448499999999996,0.4101496945693765,3.0549999999999993,down
17:58:48.797182,18.32,314.0,2.6769999999999996,7.399499999999994,0.3617812014325294,2.6769999999999996,down
17:58:48.810867,18.64,312.71,2.075,7.306999999999993,0.2839742712467499,2.075,up
17:58:48.823092,23.53,310.93,2.2484999999999995,7.290999999999997,0.3083939103003704,2.2484999999999995,down
17:58:48.834978,22.73,309.64,2.5815,7.227500000000004,0.3571774472500863,2.5815,down
17:58:48.842507,20.84,307.87,2.5004999999999997,7.190500000000003,0.3477505041374033,2.5004999999999997,down
17:58:48.854977,17.01,306.59,2.1144999999999996,7.131000000000006,0.2965222268966481,2.1144999999999996,down
17:58:48.868917,17.98,305.27,1.8249999999999995,7.031500000000006,0.2595463272416978,1.8249999999999995,down
17:58:48.880207,20.43,303.93,1.9404999999999997,6.942500000000001,0.2795102628736045,1.9404999999999997,down
17:58:48.888215,20.41,302.57,1.7605,6.862,0.2565578548528126,1.7605,down
17:58:48.898812,16.46,300.75,1.8245,6.788500000000004,0.2687633497827206,1.8245,down
17:58:48.907520,15.39,299.43,2.2279999999999993,6.720500000000004,0.3315229521612972,2.2279999999999993,down
17:58:48.925143,16.01,297.64,2.5044999999999993,6.725000000000006,0.372416356877323,2.5044999999999993,down
17:58:48.932991,13.3,296.35,2.418999999999999,6.678500000000002,0.3622070824286888,2.418999999999999,down
17:58:48.942793,11.33,294.59,2.5614999999999988,6.678999999999997,0.3835154963317862,2.5614999999999988,down
17:58:48.956566,15.63,292.88,2.506499999999999,6.6975000000000025,0.3742441209406492,2.506499999999999,down
17:58:48.969864,16.07,291.66,2.3624999999999994,6.708499999999992,0.3521651635984202,2.3624999999999994,down
17:58:48.977529,17.53,290.41,2.4944999999999995,6.711999999999989,0.371647794994041,2.4944999999999995,down
17:58:48.990165,14.15,289.13,2.4665,6.710499999999996,0.3675583041502125,2.4665,down
17:58:48.996479,21.44,287.39,2.94,6.726499999999999,0.4370772318441984,2.94,down
17:58:49.015585,23.7,286.15,3.4214999999999995,6.6904999999999974,0.5113967565951724,3.4214999999999995,down
17:58:49.023743,20.67,284.89,3.471,6.6550000000000065,0.5215627347858748,3.471,down
17:58:49.029902,21.91,283.6,3.6635,6.575999999999999,0.557101581508516,3.6635,down
17:58:49.048356,19.86,282.31,3.3605000000000005,6.481,0.5185156611634008,3.3605000000000005,down
17:58:49.057104,15.96,281.0,3.0935,6.350999999999999,0.4870886474570934,3.0935,down
17:58:49.064251,13.29,279.68,3.573500000000001,6.213999999999993,0.575072417122627,3.573500000000001,down
17:58:49.080115,11.73,277.91,4.267,6.159999999999997,0.6926948051948056,4.267,down
17:58:49.092079,14.77,276.65,4.432,6.132000000000005,0.7227658186562291,4.432,down
17:58:49.105004,18.88,274.93,4.314,6.170499999999999,0.6991329713961593,4.314,down
17:58:49.113571,19.36,273.71,3.7760000000000007,6.199000000000001,0.6091305049201484,3.7760000000000007,down
17:58:49.125671,24.26,272.48,3.502,6.218500000000001,0.5631583179223285,3.502,down
17:58:49.136997,27.27,270.79,3.854000000000001,6.252999999999991,0.6163441548056943,3.854000000000001,down
17:58:49.145031,22.34,269.6,3.665000000000001,6.25499999999999,0.5859312549960042,3.665000000000001,down
17:58:49.157401,20.73,268.39,3.709500000000001,6.252999999999991,0.593235247081402,3.709500000000001,down
17:58:49.171422,16.72,267.17,3.676000000000001,6.268499999999994,0.5864241844141349,3.676000000000001,down
17:58:49.183836,19.98,265.49,3.1665000000000005,6.298999999999995,0.5026988410858871,3.1665000000000005,down
17:58:49.191953,18.92,264.31,2.545000000000001,6.254000000000002,0.4069395586824432,2.545000000000001,down
17:58:49.199047,19.31,263.12,2.2670000000000017,6.210999999999996,0.3649975849299635,2.2670000000000017,down
17:58:49.216579,16.6,261.92,2.5250000000000012,6.124499999999995,0.4122785533512945,2.5250000000000012,down
17:58:49.228363,15.59,260.26,2.906500000000001,6.068499999999995,0.4789486693581616,2.906500000000001,down
17:58:49.241004,14.91,258.65,2.813000000000001,6.061999999999995,0.4640382711976251,2.813000000000001,down
17:58:49.245984,13.15,257.55,2.4650000000000007,6.029500000000001,0.408823285512895,2.4650000000000007,down
17:58:49.261526,12.27,255.98,2.5820000000000007,6.064500000000007,0.4257564514799238,2.5820000000000007,down
17:58:49.273337,10.46,254.91,2.9844999999999997,6.08950000000001,0.4901059200262739,2.9844999999999997,down
17:58:49.285030,10.09,253.36,3.2605000000000004,6.106500000000006,0.5339392450667317,3.2605000000000004,down
17:58:49.293016,9.17,252.31,3.715500000000001,6.0710000000000095,0.6120079064404538,3.715500000000001,down
17:58:49.306138,20.76,251.23,4.3135,6.036000000000004,0.7146288933068253,4.3135,down
17:58:49.318396,29.32,250.13,5.8065,5.980000000000004,0.970986622073578,5.8065,down
17:58:49.330285,24.16,249.02,6.5125,5.905500000000006,1.10278553890441,5.905500000000006,down
17:58:49.342407,19.43,247.44,6.647,5.838000000000003,1.138574854402192,5.838000000000003,down
17:58:49.347337,16.23,246.36,6.3805,5.754,1.1088807785888075,5.754,down
17:58:49.363277,15.25,244.82,5.9625,5.723499999999999,1.041757665763956,5.723499999999999,down
17:58:49.375772,18.54,243.78,5.639,5.648999999999998,0.9982297751814484,5.639,down
17:58:49.388356,21.63,242.27,5.34,5.626999999999995,0.9489959125644224,5.34,down
17:58:49.396748,28.87,241.26,5.7015,5.5815,1.0214995968825584,5.5815,down
17:58:49.408788,25.88,240.23,5.683999999999999,5.538499999999999,1.0262706508982578,5.538499999999999,down
17:58:49.418004,23.27,238.72,5.093,5.543000000000001,0.9188165253472846,5.093,down
17:58:49.431954,21.39,237.72,3.5759999999999996,5.542000000000002,0.6452544207867194,3.5759999999999996,down
17:58:49.441276,21.01,236.24,2.582,5.583000000000001,0.4624753716639798,2.582,down
17:58:49.452138,20.04,235.27,2.1580000000000004,5.590999999999999,0.3859774637810768,2.1580000000000004,down
17:58:49.462781,16.39,234.27,2.4850000000000008,5.570500000000001,0.4460999910241451,2.4850000000000008,down
17:58:49.476774,15.11,233.24,3.045000000000001,5.482499999999999,0.5554035567715461,3.045000000000001,down
17:58:49.481622,14.84,231.75,3.5655000000000014,5.426000000000002,0.6571138960560265,3.5655000000000014,down
17:58:49.496293,16.91,230.32,3.6625000000000014,5.373500000000002,0.6815855587605844,3.6625000000000014,down
17:58:49.510605,15.05,229.38,3.127500000000001,5.348500000000001,0.5847433859960737,3.127500000000001,down
17:58:49.523005,14.71,227.97,2.8530000000000006,5.391,0.5292153589315527,2.8530000000000006,down
17:58:49.531942,15.56,227.06,2.812500000000001,5.376499999999998,0.5231098298149357,2.812500000000001,down
17:58:49.540229,18.73,226.11,3.0760000000000014,5.338499999999996,0.5761918141800138,3.0760000000000014,down
17:58:49.555930,17.65,225.14,3.2245000000000004,5.257,0.6133726459958152,3.2245000000000004,down
17:58:49.567179,22.03,224.15,3.714,5.162000000000001,0.7194885703215806,3.714,down
17:58:49.577400,27.51,223.15,4.3605,5.078,0.8587042142575817,4.3605,down
17:58:49.589240,32.31,222.13,5.2545,5.025500000000003,1.045567605213411,5.025500000000003,down
17:58:49.595028,31.04,221.1,5.9035,4.955000000000001,1.1914228052472249,4.955000000000001,down
17:58:49.612772,29.74,220.07,6.478,4.869,1.330457999589238,4.869,down
17:58:49.621715,25.45,219.03,6.3065,4.791999999999999,1.3160475792988315,4.791999999999999,down
17:58:49.630188,20.82,217.99,6.4045000000000005,4.678499999999997,1.3689216629261525,4.678499999999997,down
17:58:49.645032,19.45,216.94,6.792,4.602499999999997,1.4757197175448131,4.602499999999997,down
17:58:49.658666,17.52,215.89,7.1385000000000005,4.579499999999999,1.558794628234524,4.579499999999999,down
17:58:49.661258,16.21,214.84,7.724000000000001,4.579499999999999,1.6866470138661434,4.579499999999999,down
17:58:49.676923,16.88,213.35,7.744,4.642999999999998,1.667887141934095,4.642999999999998,down
17:58:49.689652,14.37,212.37,7.1930000000000005,4.715999999999999,1.5252332485156916,4.715999999999999,down
17:58:49.699151,11.82,210.94,6.3565,4.817999999999998,1.319323370693234,4.817999999999998,down
17:58:49.710280,15.02,210.02,5.289499999999999,4.899999999999997,1.079489795918368,4.899999999999997,down
17:58:49.724177,12.45,208.63,4.763000000000001,4.988999999999999,0.9547003407496496,4.763000000000001,down
17:58:49.735758,10.12,207.75,5.141500000000001,5.037999999999999,1.020543866613736,5.037999999999999,down
17:58:49.743310,9.7,206.85,5.349000000000001,5.053500000000002,1.0584743247254376,5.053500000000002,down
17:58:49.756959,11.09,205.93,5.152000000000001,5.041000000000002,1.0220194405871847,5.041000000000002,down
17:58:49.765031,9.14,205.0,4.8295,5.004000000000002,0.965127897681854,4.8295,down
17:58:49.781499,13.52,203.62,4.215,4.99,0.8446893787575149,4.215,down
17:58:49.793913,15.9,202.74,3.966,4.9300000000000015,0.8044624746450302,3.966,down
17:58:49.796906,15.35,201.4,3.711,4.919499999999999,0.7543449537554631,3.711,down
17:58:49.813357,19.11,200.56,3.657000000000001,4.8625,0.7520822622107971,3.657000000000001,down
17:58:49.827308,15.51,199.25,3.6915,4.8340000000000005,0.7636532892014894,3.6915,down
17:58:49.835006,13.8,197.99,3.2960000000000007,4.8065,0.685738063039634,3.2960000000000007,down
17:58:49.847208,12.41,197.23,2.8715,4.779499999999999,0.6007950622450049,2.8715,down
17:58:49.859548,10.35,196.44,2.7030000000000003,4.753,0.568693456764149,2.7030000000000003,down
17:58:49.867979,12.23,195.62,2.614,4.726499999999999,0.5530519411826934,2.614,down
17:58:49.881847,11.29,194.33,2.5515000000000003,4.722999999999999,0.5402286682193523,2.5515000000000003,down
17:58:49.891048,15.2,193.55,2.483,4.672,0.5314640410958905,2.483,down
17:58:49.905573,13.49,192.74,2.122,4.625499999999997,0.4587612150037836,2.122,down
17:58:49.915788,16.22,191.91,2.058,4.538499999999999,0.4534537842899637,2.058,down
17:58:49.928014,16.48,191.06,1.729,4.439500000000001,0.3894582723279647,1.729,down
17:58:49.935864,16.62,190.2,1.7740000000000002,4.307500000000002,0.411839814277423,1.7740000000000002,down
17:58:49.949082,20.78,189.34,2.4035,4.169000000000002,0.5765171503957781,2.4035,down
17:58:49.962240,16.9,188.46,2.3975,4.0715,0.5888493184330099,2.3975,down
17:58:49.974390,20.89,187.58,2.5204999999999997,4.007999999999998,0.6288672654690621,2.5204999999999997,down
17:58:49.981939,17.72,186.24,2.4945,4.018499999999998,0.620754012691303,2.4945,down
17:58:49.995025,16.93,185.42,2.2745000000000006,4.024499999999998,0.5651633743322156,2.2745000000000006,down
17:58:50.006167,14.47,184.59,2.4334999999999996,4.049499999999997,0.6009383874552416,2.4334999999999996,down
17:58:50.018634,13.08,183.74,2.786,4.0680000000000005,0.6848574237954768,2.786,down
17:58:50.027705,11.35,182.89,3.0694999999999997,4.058000000000004,0.7564070970921628,3.0694999999999997,down
17:58:50.039871,16.44,182.04,2.817999999999999,4.045500000000001,0.6965764429613146,2.817999999999999,down
17:58:50.051892,13.32,181.17,2.8554999999999993,4.0550000000000015,0.7041923551171388,2.8554999999999993,down
17:58:50.061550,11.4,180.31,2.617499999999999,4.060000000000002,0.6447044334975363,2.617499999999999,down
17:58:50.071522,10.15,179.44,2.8729999999999993,4.061000000000004,0.7074612164491495,2.8729999999999993,down
17:58:50.079968,9.72,178.58,2.7669999999999986,4.059,0.6816949987681691,2.7669999999999986,down
17:58:50.097425,17.57,177.71,3.0869999999999997,4.0095,0.7699214365881032,3.0869999999999997,down
17:58:50.109649,21.51,176.84,3.901,3.964500000000001,0.983982847773994,3.901,down
17:58:50.116177,19.8,175.53,4.332,3.968000000000001,1.0917338709677418,3.968000000000001,down
17:58:50.125968,18.39,174.73,4.3149999999999995,3.968000000000001,1.0874495967741933,3.968000000000001,down
17:58:50.141376,15.16,173.48,3.838,4.032499999999999,0.951766893986361,3.838,down
17:58:50.154798,16.98,172.74,3.897,4.106999999999999,0.9488677867056248,3.897,down
17:58:50.162818,22.35,171.99,4.069500000000001,4.142999999999998,0.9822592324402613,4.069500000000001,down
17:58:50.174279,22.81,171.22,4.147,4.148499999999996,0.999638423526577,4.147,down
17:58:50.180361,24.26,170.44,4.289000000000001,4.127499999999995,1.0391278013325271,4.127499999999995,down
17:58:50.198979,22.36,169.66,4.111500000000001,4.0840000000000005,1.0067335945151814,4.0840000000000005,down
17:58:50.230217,25.58,168.86,4.0395,4.045000000000002,0.998640296662546,4.0395,down
17:58:50.230217,24.1,167.62,3.383,4.053500000000002,0.8345873936104596,3.383,down
17:58:50.232227,19.83,167.34,2.9755000000000003,3.968000000000001,0.7498739919354838,2.9755000000000003,down
17:58:50.244429,18.17,166.08,3.043,3.937,0.7729235458470917,3.043,down
17:58:50.259261,18.75,165.34,3.3395,3.862499999999997,0.8645954692556641,3.3395,down
17:58:50.265025,18.52,164.58,3.632,3.774999999999997,0.962119205298014,3.632,down
17:58:50.276858,22.54,163.82,3.1335,3.7215,0.8419991938734381,3.1335,down
17:58:50.289594,19.87,163.06,2.7750000000000004,3.695500000000002,0.7509132728994722,2.7750000000000004,down
17:58:50.297659,18.21,162.29,2.4225000000000003,3.671000000000004,0.6599019340779073,2.4225000000000003,down
17:58:50.305861,17.01,161.52,2.48,3.6700000000000017,0.6757493188010896,2.48,down
17:58:50.321321,15.99,160.3,2.3795,3.7095,0.6414611133575955,2.3795,down
17:58:50.334445,16.9,159.59,2.3515,3.695999999999998,0.6362283549783554,2.3515,down
17:58:50.344174,15.38,158.87,2.38,3.727500000000001,0.6384976525821595,2.38,down
17:58:50.349630,13.42,158.15,2.3805,3.706,0.6423367512142472,2.3805,down
17:58:50.366324,10.82,157.41,2.6335,3.664000000000004,0.7187499999999992,2.6335,down
17:58:50.379183,14.46,156.68,2.4485,3.6245000000000034,0.6755414539936537,2.4485,down
17:58:50.390875,11.96,155.94,2.812,3.587500000000003,0.7838327526132397,2.812,down
17:58:50.399187,16.43,155.19,2.7619999999999996,3.5545000000000018,0.777043184695456,2.7619999999999996,down
17:58:50.407080,13.48,154.45,2.7419999999999995,3.5455000000000014,0.7733747003243544,2.7419999999999995,down
17:58:50.424338,16.99,153.7,2.720999999999999,3.536000000000004,0.7695135746606324,2.720999999999999,down
17:58:50.433576,16.74,152.95,2.6384999999999996,3.482000000000008,0.7577541642734043,2.6384999999999996,down
17:58:50.444446,14.42,152.21,2.4939999999999993,3.432500000000007,0.7265841223597943,2.4939999999999993,down
17:58:50.456806,14.64,151.02,2.232999999999999,3.432000000000005,0.6506410256410246,2.232999999999999,down
17:58:50.462099,20.43,150.34,2.4019999999999992,3.430000000000004,0.7002915451895033,2.4019999999999992,down
17:58:50.482122,18.39,149.66,2.073999999999999,3.4465000000000003,0.6017699115044244,2.073999999999999,down
17:58:50.490903,20.24,149.42,2.240999999999999,3.4360000000000013,0.6522118742724093,2.240999999999999,down
17:58:50.501093,16.31,148.65,1.8959999999999997,3.4034999999999997,0.5570736007051563,1.8959999999999997,down
17:58:50.515142,13.17,147.89,2.156999999999999,3.3505000000000025,0.6437845097746597,2.156999999999999,down
17:58:50.524519,15.12,147.14,2.153499999999999,3.3035000000000023,0.651884365067352,2.153499999999999,down
17:58:50.533112,16.42,146.4,1.9519999999999995,3.2829999999999986,0.5945781297593665,1.9519999999999995,down
17:58:50.544918,16.54,145.65,1.7874999999999992,3.2854999999999963,0.544057221123117,1.7874999999999992,up
17:58:50.558254,15.78,144.92,1.844,3.2849999999999966,0.5613394216133948,1.844,down
17:58:50.571711,13.35,144.19,2.1254999999999997,3.237499999999997,0.656525096525097,2.1254999999999997,down
17:58:50.580128,12.32,143.01,1.9099999999999997,3.2399999999999975,0.5895061728395066,1.9099999999999997,down
17:58:50.592772,13.22,142.36,1.8474999999999997,3.2399999999999975,0.5702160493827163,1.8474999999999997,down
17:58:50.604220,11.98,141.7,1.7074999999999996,3.282499999999999,0.5201827875095202,1.7074999999999996,down
17:58:50.616640,16.44,141.04,1.9004999999999996,3.3375,0.5694382022471909,1.9004999999999996,down
17:58:50.624483,17.02,140.37,1.722,3.381499999999997,0.509241460890138,1.722,down
17:58:50.637808,15.05,139.7,1.618,3.393999999999997,0.4767236299351801,1.618,down
17:58:50.650202,14.75,139.48,1.6275,3.3349999999999995,0.4880059970014993,1.6275,down
17:58:50.659216,14.44,138.74,1.6255000000000002,3.2595,0.4986961190366621,1.6255000000000002,down
17:58:50.665822,13.54,138.01,1.6119999999999997,3.194,0.5046963055729492,1.6119999999999997,down
17:58:50.681750,11.03,136.84,1.6064999999999994,3.181,0.5050298648223827,1.6064999999999994,down
17:58:50.691917,10.19,136.19,1.6139999999999994,3.1449999999999987,0.5131955484896662,1.6139999999999994,down
17:58:50.707575,15.04,135.55,1.4354999999999998,3.1345,0.4579677779550166,1.4354999999999998,down
17:58:50.715041,25.86,134.9,2.3065,3.1234999999999986,0.7384344485352972,2.3065,down
17:58:50.726288,22.43,134.25,2.8394999999999997,3.0894999999999984,0.9190807574041112,2.8394999999999997,down
17:58:50.740552,18.59,133.15,3.0519999999999996,3.102999999999997,0.983564292620046,3.0519999999999996,down
17:58:50.751005,17.77,132.57,3.303,3.134499999999997,1.0537565799968107,3.134499999999997,down
17:58:50.760640,17.64,131.98,3.418,3.2039999999999993,1.0667915106117356,3.2039999999999993,down
17:58:50.773281,25.7,131.38,4.202,3.260499999999999,1.2887593927311765,3.260499999999999,down
17:58:50.784387,28.02,130.78,5.141,3.2829999999999986,1.5659457812975943,3.2829999999999986,down
17:58:50.792557,22.75,130.17,5.069000000000001,3.2325000000000017,1.5681361175560706,3.2325000000000017,down
17:58:50.805978,18.53,129.55,4.887,3.1650000000000005,1.544075829383886,3.1650000000000005,down
17:58:50.819707,15.73,128.94,5.3205,3.083000000000001,1.7257541355822246,3.083000000000001,down
17:58:50.830122,14.07,128.32,4.673,3.0115000000000007,1.5517184127511203,3.0115000000000007,down
17:58:50.840862,14.47,127.7,4.2875,2.971499999999999,1.4428739693757366,2.971499999999999,down
17:58:50.849896,16.66,127.08,4.022499999999999,2.9130000000000025,1.3808788190868506,2.9130000000000025,down
17:58:50.860228,13.6,126.47,4.089999999999999,2.860500000000002,1.4298199615451832,2.860500000000002,down
17:58:50.873992,13.5,125.85,4.2295,2.8139999999999987,1.503020611229567,2.8139999999999987,down
17:58:50.887373,11.61,125.23,3.779,2.772499999999998,1.363029756537422,2.772499999999998,down
17:58:50.895873,14.78,124.62,2.8105,2.757499999999999,1.019220308250227,2.757499999999999,down
17:58:50.907381,12.91,124.0,2.7224999999999993,2.765999999999997,0.9842733188720182,2.7224999999999993,down
17:58:50.918515,11.62,123.39,2.7459999999999996,2.7704999999999997,0.99115683089695,2.7459999999999996,down
17:58:50.931564,12.73,122.78,2.35,2.772499999999998,0.8476104598737607,2.35,down
17:58:50.940597,12.97,121.72,1.9275,2.817,0.6842385516506921,1.9275,down
17:58:50.953551,14.12,121.19,1.6479999999999997,2.8515000000000015,0.5779414343328069,1.6479999999999997,down
17:58:50.963349,11.74,120.64,1.6635000000000002,2.878999999999999,0.577804793331018,1.6635000000000002,down
17:58:50.977390,12.48,120.09,1.3425000000000002,2.900999999999999,0.4627714581178906,1.3425000000000002,down
17:58:50.983897,13.43,119.53,1.134,2.8949999999999987,0.3917098445595857,1.134,down
17:58:50.996187,12.35,118.97,0.8320000000000001,2.8655,0.2903507241319142,0.8320000000000001,down
17:58:51.010420,11.46,118.86,0.931,2.7939999999999996,0.3332140300644238,0.931,up
17:58:51.022872,11.3,118.22,0.9065,2.7310000000000003,0.3319296960820211,0.9065,down
17:58:51.031235,13.42,118.05,0.7664999999999997,2.6300000000000012,0.2914448669201518,0.7664999999999997,down
17:58:51.041652,14.44,117.36,0.8559999999999995,2.543000000000002,0.3366103027919775,0.8559999999999995,down
17:58:51.054399,18.7,116.69,1.4044999999999996,2.4450000000000003,0.5744376278118607,1.4044999999999996,down
17:58:51.064945,16.18,116.04,1.6389999999999998,2.3829999999999982,0.6877885018883764,1.6389999999999998,down
17:58:51.080023,14.14,115.4,1.5904999999999996,2.3509999999999978,0.676520629519354,1.5904999999999996,down
17:58:51.087569,17.78,114.77,1.9559999999999995,2.3449999999999975,0.8341151385927512,1.9559999999999995,down
17:58:51.098406,20.56,114.15,2.522,2.3604999999999974,1.068417708112689,2.3604999999999974,down
17:58:51.109666,29.12,113.55,3.856,2.393499999999998,1.611029872571549,2.393499999999998,down
17:58:51.123748,32.63,112.95,5.3065,2.464999999999999,2.152738336713997,2.464999999999999,down
17:58:51.130290,32.9,112.36,6.661,2.522999999999999,2.6401109789932633,2.522999999999999,down
17:58:51.142360,29.66,111.77,7.5825,2.6159999999999997,2.8985091743119273,2.6159999999999997,down
17:58:51.157511,24.57,111.2,7.611500000000001,2.691999999999999,2.8274517087667177,2.691999999999999,down
17:58:51.163560,23.53,110.62,7.088500000000001,2.732499999999999,2.594144556267156,2.732499999999999,down
17:58:51.177961,26.15,110.06,6.844499999999999,2.742,2.49617067833698,2.742,down
17:58:51.191206,21.04,109.5,7.205000000000001,2.7250000000000014,2.644036697247705,2.7250000000000014,down
17:58:51.203196,22.59,108.94,7.0825000000000005,2.6860000000000013,2.636820551005211,2.6860000000000013,down
17:58:51.210312,23.13,108.39,6.678500000000001,2.650500000000001,2.519713261648745,2.650500000000001,down
17:58:51.222526,19.43,107.84,5.7595,2.619,2.1991218022145858,2.619,down
17:58:51.230420,15.81,107.29,4.9465,2.5909999999999997,1.909108452335006,2.5909999999999997,down
17:58:51.248521,16.5,106.75,4.1165,2.565499999999999,1.6045605145195876,2.565499999999999,down
17:58:51.260002,17.07,106.21,3.5879999999999996,2.541999999999997,1.4114870180959889,2.541999999999997,down
17:58:51.265281,16.27,106.13,3.784,2.4754999999999994,1.5285800848313476,2.4754999999999994,down
17:58:51.280042,18.69,105.52,3.769,2.4170000000000003,1.5593711212246584,2.4170000000000003,down
17:58:51.291561,22.33,104.94,4.016999999999999,2.3655000000000017,1.6981610653138852,2.3655000000000017,down
17:58:51.305031,22.39,104.36,3.9179999999999993,2.3210000000000006,1.6880654890133555,2.3210000000000006,down
17:58:51.313611,24.06,103.8,4.140999999999999,2.3034999999999997,1.7976991534621227,2.3034999999999997,down
17:58:51.325091,19.69,103.24,3.980999999999999,2.3099999999999996,1.7233766233766232,2.3099999999999996,down
17:58:51.336306,17.08,102.69,3.599499999999999,2.3139999999999987,1.5555315471045812,2.3139999999999987,down
17:58:51.350498,14.72,102.15,3.163999999999999,2.314999999999999,1.3667386609071277,2.314999999999999,down
17:58:51.357979,12.21,101.62,3.0954999999999986,2.3139999999999987,1.3377268798617117,2.3139999999999987,down
17:58:51.371514,14.63,101.54,2.946499999999998,2.266499999999998,1.3000220604456214,2.266499999999998,down
17:58:51.382948,14.58,100.95,2.880499999999998,2.2694999999999963,1.269222295659838,2.2694999999999963,down
17:58:51.394935,21.19,100.37,3.123999999999998,2.269999999999996,1.376211453744495,2.269999999999996,down
17:58:51.404919,21.14,99.81,3.072499999999999,2.269499999999995,1.353822427847546,2.269499999999995,down
17:58:51.410337,19.87,99.26,2.8879999999999995,2.2894999999999968,1.2614107883817445,2.2894999999999968,down
17:58:51.427807,24.76,98.72,3.0255,2.3049999999999984,1.312581344902387,2.3049999999999984,down
17:58:51.440296,30.52,98.19,4.167,2.293499999999999,1.8168737737083067,2.293499999999999,down
17:58:51.447792,26.68,97.67,4.704,2.2815,2.061801446416831,2.2815,down
17:58:51.458276,26.18,97.15,4.889,2.2699999999999987,2.1537444933920717,2.2699999999999987,down
17:58:51.471742,22.09,96.65,4.3665,2.258,1.933790965456156,2.258,down
17:58:51.483118,24.78,96.14,4.176500000000001,2.2915000000000005,1.822605280384028,2.2915000000000005,down
17:58:51.493358,20.33,95.65,4.155500000000001,2.3180000000000005,1.792709232096635,2.3180000000000005,down
17:58:51.505078,21.06,95.15,4.111500000000001,2.339,1.7578024796921767,2.339,down
17:58:51.515650,17.44,94.67,4.434500000000001,2.3545000000000003,1.8834147377362496,2.3545000000000003,down
17:58:51.530474,20.41,94.18,4.5875,2.344,1.95712457337884,2.344,down
17:58:51.535604,21.17,93.26,3.996,2.3549999999999995,1.696815286624204,2.3549999999999995,down
17:58:51.543849,24.54,92.85,3.0824999999999996,2.363000000000001,1.3044858231062202,2.363000000000001,down
17:58:51.563940,28.06,92.44,3.1079999999999997,2.3680000000000008,1.3124999999999991,2.3680000000000008,down
17:58:51.571850,22.47,92.02,2.6904999999999992,2.370000000000003,1.1352320675105467,2.370000000000003,down
17:58:51.580324,19.13,92.04,2.844,2.304000000000002,1.234374999999999,2.304000000000002,down
17:58:51.592943,15.94,91.55,3.1879999999999997,2.2230000000000034,1.4340980656770108,2.2230000000000034,down
17:58:51.607754,13.89,91.06,3.5629999999999997,2.1535000000000024,1.6545159043417672,2.1535000000000024,down
17:58:51.617177,11.64,90.13,4.1395,2.138500000000005,1.9357025952770588,2.138500000000005,down
17:58:51.629444,9.97,90.17,4.520999999999999,2.101500000000004,2.15132048536759,2.101500000000004,down
17:58:51.640705,8.03,89.69,5.169999999999999,2.0895000000000037,2.474276142617846,2.0895000000000037,down
17:58:51.654819,10.01,89.22,5.614499999999999,2.034500000000004,2.759646104694022,2.034500000000004,down
17:58:51.661314,15.67,88.75,5.4125,1.966000000000004,2.7530518819938905,1.966000000000004,up
17:58:51.674556,13.26,88.29,4.800999999999999,1.905000000000004,2.5202099737532753,1.905000000000004,down
17:58:51.684867,15.78,87.83,4.9375,1.8725000000000025,2.636849132176232,1.8725000000000025,down
17:58:51.693048,20.49,87.38,5.430499999999999,1.9120000000000033,2.8402196652719613,1.9120000000000033,down
17:58:51.706850,23.38,86.93,5.9315,1.9670000000000016,3.0155058464666977,1.9670000000000016,down
17:58:51.713694,22.44,86.49,6.044499999999999,2.011500000000004,3.0049714143673816,2.011500000000004,down
17:58:51.730713,18.09,86.05,5.468,2.0015000000000027,2.7319510367224544,2.0015000000000027,down
17:58:51.743722,16.37,85.61,4.5175,2.015000000000002,2.2419354838709658,2.015000000000002,down
17:58:51.749041,16.71,85.18,3.5840000000000005,2.0030000000000014,1.7893160259610574,2.0030000000000014,down
17:58:51.763060,16.88,84.75,3.1020000000000003,1.9905000000000015,1.5584024114544075,1.9905000000000015,down
17:58:51.776770,18.12,84.32,3.0765,1.999000000000001,1.539019509754877,1.999000000000001,down
17:58:51.782664,17.25,83.9,3.0870000000000006,2.006,1.5388833499501495,2.006,down
17:58:51.796654,26.97,83.47,3.753,1.9905000000000015,1.8854559155990944,1.9905000000000015,down
17:58:51.808704,22.14,83.05,3.4650000000000007,1.974500000000002,1.7548746518105836,1.974500000000002,down
17:58:51.821827,22.45,82.64,2.9190000000000005,1.958500000000002,1.490426346693897,1.958500000000002,down
17:58:51.830465,18.61,82.22,2.1719999999999997,1.9445000000000008,1.116996657238364,1.9445000000000008,down
17:58:51.839260,18.37,81.81,1.9479999999999995,1.9310000000000005,1.0088037286380112,1.9310000000000005,down
17:58:51.854881,16.93,81.4,2.05,1.9175,1.0691003911342896,1.9175,down
17:58:51.866765,19.0,80.99,2.0839999999999996,1.9055000000000009,1.0936762004723164,1.9055000000000009,down
17:58:51.874493,17.6,80.58,2.1645000000000003,1.8945000000000007,1.1425178147268409,1.8945000000000007,down
17:58:51.884350,17.02,80.63,2.248,1.838000000000001,1.2230685527747545,1.838000000000001,down
17:58:51.899586,15.9,80.16,2.465,1.7895000000000023,1.3774797429449546,1.7895000000000023,down
17:58:51.911516,17.32,80.15,1.6450000000000002,1.7015,0.9667940052894506,1.6450000000000002,down
17:58:51.913593,18.17,79.63,1.27,1.628,0.7800982800982801,1.27,down
17:58:51.932842,20.53,79.13,1.1,1.586,0.6935687263556117,1.1,down
17:58:51.941222,20.55,78.65,1.3160000000000005,1.5689999999999995,0.8387507966857874,1.3160000000000005,down
17:58:51.956498,17.69,78.19,1.308,1.578,0.8288973384030418,1.308,down
17:58:51.960088,14.69,77.74,1.4720000000000002,1.6070000000000022,0.9159925326695696,1.4720000000000002,down
17:58:51.976931,18.28,77.3,1.4845000000000002,1.6295000000000015,0.9110156489720764,1.4845000000000002,down
17:58:51.990022,15.73,77.31,1.5730000000000004,1.6025000000000005,0.981591263650546,1.5730000000000004,down
17:58:51.997560,13.67,76.82,1.8095000000000008,1.624000000000001,1.114224137931034,1.624000000000001,down
17:58:52.009800,12.59,76.35,2.0420000000000007,1.6410000000000011,1.2443631931748929,1.6410000000000011,down
17:58:52.021546,10.51,75.89,2.5955000000000004,1.7000000000000028,1.5267647058823506,1.7000000000000028,down
17:58:52.034529,11.5,75.45,2.938000000000001,1.7675000000000023,1.6622347949080605,1.7675000000000023,down
17:58:52.047237,11.06,75.02,2.985500000000001,1.824000000000004,1.6367872807017514,1.824000000000004,down
17:58:52.055098,15.26,74.6,2.827000000000001,1.850500000000004,1.5276952175087788,1.850500000000004,down
17:58:52.064998,15.92,74.19,2.996500000000001,1.847000000000004,1.6223605847319946,1.847000000000004,down
17:58:52.080205,19.68,73.33,3.222500000000001,1.866000000000004,1.7269560557341876,1.866000000000004,down
17:58:52.090336,18.35,73.01,3.5475000000000008,1.8805000000000036,1.8864663653283669,1.8805000000000036,down
17:58:52.097253,14.87,72.67,3.430000000000001,1.9365000000000037,1.771236767363798,1.9365000000000037,down
17:58:52.112061,12.29,72.34,3.190500000000001,1.9820000000000024,1.6097376387487374,1.9820000000000024,down
17:58:52.124327,10.22,72.0,3.035,1.9965000000000004,1.5201602804908587,1.9965000000000004,down
17:58:52.136591,8.39,71.66,2.9339999999999997,1.9840000000000004,1.4788306451612898,1.9840000000000004,down
17:58:52.144403,8.68,71.32,3.0529999999999995,1.950500000000001,1.5652396821327854,1.950500000000001,down
17:58:52.157891,7.69,70.98,3.3299999999999996,1.8989999999999996,1.7535545023696684,1.8989999999999996,down
17:58:52.167787,8.95,70.64,3.4524999999999997,1.8534999999999997,1.8626922039384948,1.8534999999999997,down
17:58:52.180383,10.48,70.29,3.291499999999999,1.8144999999999984,1.8139983466519716,1.8144999999999984,down
17:58:52.189633,10.46,69.95,2.781999999999999,1.734499999999997,1.6039204381666208,1.734499999999997,down
17:58:52.202854,13.39,69.61,2.6984999999999992,1.665999999999998,1.6197478991596652,1.665999999999998,down
17:58:52.214847,17.55,69.27,3.3594999999999993,1.6059999999999988,2.091843088418432,1.6059999999999988,down
17:58:52.222825,15.46,68.93,3.7275,1.5539999999999992,2.39864864864865,1.5539999999999992,down
17:58:52.230229,17.28,68.59,4.0725,1.531,2.6600261267145653,1.531,down
17:58:52.247639,14.52,68.69,3.812,1.489,2.5601074546675617,1.489,down
17:58:52.260507,14.07,68.29,3.3560000000000003,1.4519999999999982,2.3112947658402234,1.4519999999999982,down
17:58:52.266505,25.91,68.34,3.928500000000001,1.3754999999999982,2.856052344601967,1.3754999999999982,down
17:58:52.280370,26.36,67.89,4.835,1.3144999999999982,3.6782046405477415,1.3144999999999982,down
17:58:52.291798,21.9,67.45,5.375,1.2794999999999987,4.200859710824545,1.2794999999999987,down
17:58:52.299579,17.9,67.03,5.4115,1.2689999999999997,4.264381402679276,1.2689999999999997,down
17:58:52.311649,19.24,66.63,5.257999999999999,1.2834999999999994,4.09661082976237,1.2834999999999994,down
17:58:52.323958,15.52,66.23,4.743999999999999,1.3154999999999988,3.606233371341698,1.3154999999999988,down
17:58:52.338183,15.47,65.85,4.444,1.344,3.3065476190476195,1.344,down
17:58:52.349426,15.85,65.48,3.865499999999999,1.3670000000000002,2.827724945135332,1.3670000000000002,down
17:58:52.356306,13.73,65.12,3.921499999999999,1.4289999999999992,2.744226731980407,1.4289999999999992,up
17:58:52.369124,11.72,65.21,4.403,1.4360000000000013,3.0661559888579357,1.4360000000000013,down
17:58:52.381487,9.83,64.79,3.826999999999999,1.4850000000000008,2.577104377104375,1.4850000000000008,down
17:58:52.394161,10.07,64.39,3.2324999999999995,1.5204999999999995,2.125945412693193,1.5204999999999995,down
17:58:52.398488,8.24,64.44,3.3154999999999992,1.4920000000000002,2.2221849865951735,1.4920000000000002,down
17:58:52.413877,11.12,64.0,3.4275,1.4649999999999992,2.339590443686008,1.4649999999999992,down
17:58:52.427333,12.74,63.57,3.3270000000000004,1.435,2.318466898954704,1.435,down
17:58:52.439247,14.07,63.16,3.3040000000000007,1.3945000000000014,2.3693079956973806,1.3945000000000014,down
17:58:52.447393,12.7,63.22,3.141,1.332,2.358108108108108,1.332,down
17:58:52.460118,14.62,62.77,3.2794999999999996,1.2984999999999984,2.5256064690026983,1.2984999999999984,down
17:58:52.467783,12.03,62.35,2.9805,1.2709999999999986,2.3450039339103097,1.2709999999999986,down
17:58:52.485195,18.12,61.94,3.0405,1.294499999999997,2.3487833140208627,1.294499999999997,down
17:58:52.491689,14.59,61.55,2.6420000000000003,1.3334999999999986,1.9812523434570704,1.3334999999999986,down
17:58:52.506184,15.29,61.62,2.2880000000000003,1.3405,1.7068258112644537,1.3405,down
17:58:52.514414,14.56,61.18,1.6765,1.3880000000000003,1.2078530259365992,1.3880000000000003,down
17:58:52.530119,17.01,60.77,1.7594999999999998,1.4090000000000005,1.248757984386089,1.4090000000000005,down
17:58:52.538529,17.09,60.38,1.957,1.410499999999999,1.3874512584190015,1.410499999999999,down
17:58:52.551548,16.5,60.0,1.9275,1.423499999999997,1.35405690200211,1.423499999999997,down
17:58:52.561833,21.26,59.63,2.4150000000000005,1.477499999999997,1.6345177664974655,1.477499999999997,down
17:58:52.571548,19.69,59.28,2.4675,1.504499999999998,1.6400797607178488,1.504499999999998,down
17:58:52.580541,17.8,59.38,2.527,1.4804999999999986,1.7068557919621767,1.4804999999999986,down
17:58:52.593957,14.47,58.98,2.1800000000000006,1.4559999999999989,1.4972527472527488,1.4559999999999989,down
17:58:52.607513,16.05,58.59,2.0635000000000003,1.414499999999998,1.458819370802406,1.414499999999998,down
17:58:52.610641,17.81,58.22,1.9510000000000003,1.408499999999998,1.3851615193468254,1.408499999999998,down
17:58:52.628622,14.42,58.31,2.1895000000000007,1.3724999999999974,1.5952641165755954,1.3724999999999974,down
17:58:52.638658,14.05,57.9,2.2205000000000004,1.3579999999999977,1.635125184094259,1.3579999999999977,down
17:58:52.652303,21.12,57.95,2.3690000000000007,1.3014999999999972,1.820207452938921,1.3014999999999972,down
17:58:52.660513,18.97,57.51,2.3310000000000004,1.2369999999999983,1.8843977364591784,1.2369999999999983,down
17:58:52.667105,15.5,57.09,1.9370000000000005,1.1809999999999987,1.640135478408131,1.1809999999999987,down
17:58:52.684886,16.2,56.69,1.6510000000000005,1.1509999999999991,1.4344048653344932,1.1509999999999991,down
17:58:52.695506,15.51,56.31,1.6030000000000009,1.1929999999999985,1.343671416596817,1.1929999999999985,down
17:58:52.706334,19.32,55.94,1.6940000000000004,1.2484999999999986,1.356828193832601,1.2484999999999986,down
17:58:52.717021,15.74,55.6,1.6465000000000003,1.2959999999999987,1.270447530864199,1.2959999999999987,down
17:58:52.730105,12.88,55.26,1.845,1.3304999999999985,1.3866967305524256,1.3304999999999985,down
17:58:52.742223,11.79,54.93,1.9655,1.385499999999999,1.418621436304584,1.385499999999999,down
17:58:52.749631,10.91,54.62,2.1625,1.4129999999999996,1.5304317055909418,1.4129999999999996,down
17:58:52.757504,14.89,54.31,1.8269999999999995,1.4754999999999996,1.238224330735344,1.4754999999999996,down
17:58:52.774725,14.41,53.56,1.789,1.568499999999999,1.1405801721389872,1.568499999999999,down
17:58:52.788142,17.9,53.78,1.9165,1.582499999999999,1.2110584518167464,1.582499999999999,down
17:58:52.796857,15.14,53.48,1.9214999999999995,1.572499999999999,1.2219395866454696,1.572499999999999,down
17:58:52.807972,14.09,53.63,1.9504999999999997,1.4944999999999993,1.3051187688190031,1.4944999999999993,down
17:58:52.821432,16.15,53.27,1.7809999999999997,1.395499999999999,1.2762450734503767,1.395499999999999,down
17:58:52.833167,12.99,52.93,1.8839999999999997,1.3029999999999995,1.445894090560246,1.3029999999999995,down
17:58:52.840682,12.82,52.6,1.7525,1.239499999999999,1.4138765631302956,1.239499999999999,down
17:58:52.852395,13.23,52.28,1.4709999999999996,1.2064999999999984,1.2192291753004572,1.2064999999999984,down
17:58:52.866995,13.55,52.42,1.0694999999999997,1.151499999999998,0.9287885366912734,1.0694999999999997,down
17:58:52.877199,14.34,52.05,1.0204999999999995,1.110499999999999,0.9189554254840168,1.0204999999999995,down
17:58:52.886033,15.1,52.14,1.0304999999999995,0.9859999999999992,1.045131845841785,0.9859999999999992,down
17:58:52.895507,13.28,51.74,0.8144999999999998,0.9314999999999998,0.8743961352657005,0.8144999999999998,down
17:58:52.909222,11.21,51.81,1.0224999999999995,0.8559999999999995,1.1945093457943925,0.8559999999999995,down
17:58:52.922734,13.66,51.38,0.9909999999999995,0.8554999999999993,1.1583869082407954,0.8554999999999993,down
17:58:52.931544,24.56,50.97,1.9555,0.8904999999999994,2.1959573273441904,0.8904999999999994,down
17:58:52.941181,26.87,51.04,3.156,0.9019999999999996,3.498891352549891,0.9019999999999996,down
17:58:52.956102,22.11,50.61,3.824,0.9190000000000004,4.161044613710553,0.9190000000000004,down
17:58:52.964599,18.85,50.21,4.135,0.9300000000000012,4.446236559139779,0.9300000000000012,down
17:58:52.976571,16.29,49.84,4.1245,0.971500000000001,4.2454966546577415,0.971500000000001,down
17:58:52.989149,18.9,49.48,4.245,1.0190000000000006,4.165848871442589,1.0190000000000006,down
17:58:52.995294,18.52,49.15,4.173,1.1205000000000005,3.724230254350734,1.1205000000000005,down
17:58:53.009372,16.39,48.82,4.3485,1.2025,3.616216216216216,1.2025,down
17:58:53.021873,15.69,48.96,4.4275,1.2550000000000003,3.5278884462151385,1.2550000000000003,down
17:58:53.034323,18.84,48.59,4.403500000000001,1.279,3.44292415949961,1.279,down
17:58:53.046098,15.36,48.7,3.621000000000001,1.227999999999999,2.948697068403911,1.227999999999999,down
17:58:53.053307,13.18,48.3,2.7220000000000004,1.2144999999999997,2.2412515438452045,1.2144999999999997,down
17:58:53.066760,12.61,48.37,2.2840000000000007,1.1499999999999992,1.986086956521741,1.1499999999999992,down
17:58:53.102094,14.53,47.95,2.0170000000000003,1.0959999999999994,1.840328467153286,1.0959999999999994,down
17:58:53.102094,12.46,47.56,2.264,1.0674999999999997,2.1208430913348955,1.0674999999999997,down
17:58:53.139749,12.68,47.19,2.3575000000000004,1.0440000000000005,2.2581417624521065,1.0440000000000005,down
17:58:53.152800,13.36,46.84,2.3995000000000006,1.0294999999999994,2.330743079164645,1.0294999999999994,down
17:58:53.154673,16.79,46.51,2.4545000000000003,1.032,2.378391472868217,1.032,down
17:58:53.154673,15.69,46.2,2.3294999999999995,1.0809999999999995,2.154949121184089,1.0809999999999995,down
17:58:53.154673,14.45,45.9,2.3834999999999993,1.1215000000000004,2.1252786446723126,1.1215000000000004,down
17:58:53.156181,14.01,45.62,2.0839999999999996,1.1995000000000011,1.7373905794080848,1.1995000000000011,down
17:58:53.168023,18.22,45.34,2.055499999999999,1.2575000000000005,1.634592445328031,1.2575000000000005,down
17:58:53.179786,16.15,45.07,1.8484999999999996,1.3340000000000003,1.385682158920539,1.3340000000000003,down
17:58:53.189515,15.49,44.81,1.7545000000000002,1.3769999999999996,1.2741466957153238,1.3769999999999996,down
17:58:53.200946,12.56,44.56,1.689,1.3884999999999992,1.2164205977673757,1.3884999999999992,down
17:58:53.214280,16.69,44.31,1.5725,1.3764999999999987,1.1423901198692346,1.3764999999999987,down
17:58:53.225246,20.44,44.51,1.9660000000000004,1.2964999999999995,1.5163902815271897,1.2964999999999995,down
17:58:53.232064,24.1,44.21,2.4995000000000003,1.207999999999999,2.0691225165562934,1.207999999999999,down
17:58:53.247214,22.27,44.36,2.910000000000001,1.0849999999999995,2.682027649769587,1.0849999999999995,down
17:58:53.256325,17.83,44.01,2.9125000000000005,0.9899999999999992,2.941919191919195,0.9899999999999992,down
17:58:53.271349,16.6,43.68,2.946,0.925999999999999,3.1814254859611264,0.925999999999999,up
17:58:53.280330,18.52,43.37,2.6730000000000005,0.889,3.0067491563554563,0.889,down
17:58:53.292002,15.24,43.07,2.709,0.8795000000000002,3.080159181353041,0.8795000000000002,down
17:58:53.303177,12.61,43.24,3.122,0.8425000000000005,3.705637982195843,0.8425000000000005,down
17:58:53.312805,11.44,42.9,3.463,0.8170000000000008,4.238678090575271,0.8170000000000008,down
17:58:53.325253,14.29,42.58,3.6455,0.7945000000000008,4.5884203901825,0.7945000000000008,down
17:58:53.336658,14.04,42.27,3.3815,0.8285000000000003,4.081472540736269,0.8285000000000003,down
17:58:53.349396,11.62,42.43,2.8779999999999992,0.8280000000000008,3.4758454106280148,0.8280000000000008,down
17:58:53.356812,9.51,42.09,2.7585,0.8850000000000001,3.1169491525423725,0.8850000000000001,down
17:58:53.368231,12.52,41.77,2.782,0.9294999999999994,2.9930069930069947,0.9294999999999994,down
17:58:53.382560,18.14,41.91,3.1975,0.9134999999999992,3.5002736726874697,0.9134999999999992,down
17:58:53.389932,17.13,41.55,3.4519999999999995,0.8969999999999991,3.848383500557417,0.8969999999999991,down
17:58:53.399899,19.95,41.22,3.9125,0.8739999999999994,4.476544622425632,0.8739999999999994,down
17:58:53.410721,16.9,40.9,3.721,0.8969999999999999,4.148272017837236,0.8969999999999999,down
17:58:53.426588,13.78,41.06,3.1775,0.8805,3.608745031232255,0.8805,up
17:58:53.438093,15.4,40.71,2.9530000000000003,0.8809999999999996,3.351872871736665,0.8809999999999996,down
17:58:53.447763,12.74,40.38,2.95,0.8779999999999994,3.359908883826882,0.8779999999999994,down
17:58:53.460110,12.72,40.07,2.8225,0.9124999999999992,3.09315068493151,0.9124999999999992,down
17:58:53.467794,10.3,39.79,2.786,0.9420000000000002,2.957537154989384,0.9420000000000002,down
17:58:53.484048,13.66,39.96,2.7985,0.9295000000000008,3.010758472296931,0.9295000000000008,down
17:58:53.493285,16.24,39.63,2.482,0.9615000000000008,2.581383255330211,0.9615000000000008,down
17:58:53.504853,17.78,39.32,2.4204999999999997,0.9720000000000006,2.490226337448558,0.9720000000000006,down
17:58:53.516694,15.98,39.03,1.897,0.9744999999999996,1.94663930220626,0.9744999999999996,down
17:58:53.530386,16.36,38.75,1.8005000000000002,0.9769999999999996,1.8428863868986705,0.9769999999999996,down
17:58:53.536180,17.17,38.49,1.91,1.0209999999999997,1.870714985308522,1.0209999999999997,down
17:58:53.543835,15.02,38.24,1.89,1.0494999999999997,1.8008575512148648,1.0494999999999997,down
17:58:53.562606,15.05,38.45,1.7515,1.0214999999999996,1.7146353401860015,1.0214999999999996,down
17:58:53.573576,14.41,38.14,1.675,0.9894999999999996,1.692774128347651,0.9894999999999996,down
17:58:53.582980,11.55,37.86,1.6425,0.9464999999999996,1.7353407290015854,0.9464999999999996,down
17:58:53.593407,14.51,37.59,1.65,0.9499999999999992,1.736842105263159,0.9499999999999992,down
17:58:53.607581,15.85,37.79,1.5250000000000004,0.9139999999999994,1.668490153172868,0.9139999999999994,down
17:58:53.619375,14.49,37.47,1.2605000000000002,0.8954999999999991,1.4075935231714145,0.8954999999999991,down
17:58:53.626763,15.11,37.63,1.129,0.833999999999999,1.3537170263788985,0.833999999999999,down
17:58:53.640665,15.7,37.28,1.0185,0.7759999999999991,1.312500000000001,0.7759999999999991,down
17:58:53.652068,19.61,36.96,1.3279999999999998,0.7289999999999992,1.821673525377231,0.7289999999999992,down
17:58:53.663055,22.6,36.66,2.032,0.7004999999999996,2.9007851534618148,0.7004999999999996,down
17:58:53.673481,18.38,36.38,2.283,0.743,3.072678331090175,0.743,down
17:58:53.685414,15.58,36.57,2.1785,0.7484999999999999,2.910487641950568,0.7484999999999999,down
17:58:53.694375,12.78,36.25,2.068,0.7594999999999998,2.722843976300198,0.7594999999999998,down
17:58:53.709939,10.5,35.95,2.4814999999999996,0.7575000000000003,3.2759075907590742,0.7575000000000003,down
17:58:53.715398,11.66,35.67,2.81,0.7964999999999997,3.527934714375394,0.7964999999999997,down
17:58:53.730458,9.58,35.86,3.3319999999999994,0.7859999999999999,4.239185750636132,0.7859999999999999,down
17:58:53.741292,9.18,35.54,3.824500000000001,0.8265,4.6273442226255295,0.8265,down
17:58:53.750000,13.5,35.25,3.794,0.857,4.427071178529754,0.857,down
17:58:53.760166,14.76,35.42,3.4985,0.8305,4.212522576760987,0.8305,down
17:58:53.774916,22.75,35.09,3.7075,0.8029999999999994,4.617061021170613,0.8029999999999994,down
17:58:53.788133,28.06,34.78,4.901999999999999,0.7704999999999999,6.36210253082414,0.7704999999999999,down
17:58:53.795426,23.29,34.5,5.911,0.7880000000000003,7.501269035532992,0.7880000000000003,down
17:58:53.808660,18.87,34.23,6.098999999999999,0.8115000000000002,7.515711645101661,0.8115000000000002,down
17:58:53.820045,23.09,33.98,6.2124999999999995,0.8445000000000007,7.356423919478975,0.8445000000000007,down
17:58:53.833149,27.69,33.75,6.531999999999999,0.8685000000000016,7.52101324122048,0.8685000000000016,down
17:58:53.840273,27.23,33.52,6.3865,0.9190000000000011,6.949401523394986,0.9190000000000011,down
17:58:53.853207,25.01,33.3,6.068499999999999,0.9480000000000012,6.40137130801687,0.9480000000000012,down
17:58:53.859343,26.85,33.09,6.3025,0.9645000000000004,6.53447382063245,0.9645000000000004,down
17:58:53.877427,22.3,32.89,6.3255,1.0134999999999998,6.241243216576222,1.0134999999999998,down
17:58:53.880072,21.0,33.15,5.6795,0.9945000000000008,5.710910005027648,0.9945000000000008,down
17:58:53.898652,16.96,32.89,4.810499999999999,0.964,4.990145228215766,0.964,up
17:58:53.910868,16.66,32.65,4.398999999999999,0.9234999999999992,4.763400108283706,0.9234999999999992,down
17:58:53.922774,25.0,32.42,4.020499999999999,0.8829999999999991,4.553227633069087,0.8829999999999991,down
17:58:53.931270,26.2,32.2,3.5124999999999993,0.8429999999999985,4.166666666666673,0.8429999999999985,down
17:58:53.943159,23.7,31.99,2.8894999999999995,0.8144999999999986,3.547575199508907,0.8144999999999986,down
17:58:53.954203,22.82,31.79,2.502499999999999,0.8004999999999984,3.1261711430356076,0.8004999999999984,down
17:58:53.968357,22.12,32.04,2.3644999999999996,0.7434999999999985,3.180228648285144,0.7434999999999985,down
17:58:53.974526,19.79,31.78,2.3364999999999996,0.6949999999999992,3.3618705035971255,0.6949999999999992,down
17:58:53.987140,17.89,31.99,2.5184999999999995,0.6105000000000004,4.125307125307122,0.6105000000000004,down
17:58:53.999824,18.18,32.14,2.480999999999999,0.5669999999999995,4.3756613756613785,0.5669999999999995,down
17:58:54.011354,14.87,31.8,2.4664999999999995,0.5364999999999999,4.5973904939422185,0.5364999999999999,down
17:58:54.018550,14.57,31.48,2.501499999999999,0.53,4.719811320754715,0.53,down
17:58:54.030415,11.97,31.19,3.1074999999999995,0.5304999999999996,5.857681432610748,0.5304999999999996,down
17:58:54.045606,9.89,31.37,3.8025,0.4939999999999998,7.697368421052635,0.4939999999999998,down
17:58:54.058069,13.52,31.05,4.023499999999999,0.4774999999999995,8.426178010471212,0.4774999999999995,down
17:58:54.062032,11.01,31.2,4.350499999999999,0.4225000000000001,10.297041420118338,0.4225000000000001,down
17:58:54.078595,9.0,30.86,4.811,0.4295000000000005,11.201396973224666,0.4295000000000005,down
17:58:54.090420,13.86,30.55,4.586,0.4500000000000003,10.191111111111104,0.4500000000000003,down
17:58:54.097563,16.32,30.27,4.481999999999999,0.5294999999999999,8.46458923512748,0.5294999999999999,down
17:58:54.111068,16.75,30.0,4.5104999999999995,0.6365000000000002,7.086410054988214,0.6365000000000002,down
17:58:54.123954,18.01,30.2,4.334,0.6905000000000001,6.2766111513396075,0.6905000000000001,down
17:58:54.134197,25.76,29.9,4.902500000000001,0.7200000000000003,6.809027777777776,0.7200000000000003,down
17:58:54.144768,32.42,30.07,5.934,0.6835000000000004,8.68178493050475,0.6835000000000004,down
17:58:54.156843,33.18,29.75,6.784000000000001,0.6895000000000003,9.83901377810007,0.6895000000000003,down
17:58:54.164748,27.68,29.9,7.528,0.6395000000000003,11.771696637998431,0.6395000000000003,down
17:58:54.180239,25.15,29.56,7.514,0.6440000000000001,11.667701863354036,0.6440000000000001,up
17:58:54.189384,21.88,29.24,7.173000000000002,0.6585000000000001,10.892938496583144,0.6585000000000001,down
17:58:54.201002,21.66,28.96,7.341500000000001,0.6789999999999999,10.812223858615614,0.6789999999999999,down
17:58:54.212907,21.4,28.69,7.290000000000001,0.6999999999999996,10.414285714285722,0.6999999999999996,down
17:58:54.226531,23.71,28.9,7.056,0.6634999999999998,10.634513941220805,0.6634999999999998,down
17:58:54.233465,26.62,28.6,6.7405,0.6679999999999996,10.090568862275456,0.6679999999999996,down
17:58:54.245360,25.86,28.77,5.569,0.6204999999999998,8.975020145044322,0.6204999999999998,down
17:58:54.258795,20.92,28.45,4.187,0.6344999999999998,6.598896769109537,0.6344999999999998,down
17:58:54.268906,20.03,28.16,2.7990000000000004,0.6535,4.28309104820199,0.6535,down
17:58:54.277316,17.5,27.89,2.1960000000000006,0.7140000000000001,3.075630252100841,0.7140000000000001,down
17:58:54.291089,18.44,27.64,2.148000000000001,0.7670000000000001,2.8005215123859193,0.7670000000000001,down
17:58:54.304034,15.57,27.41,2.5435000000000003,0.8074999999999999,3.149845201238391,0.8074999999999999,down
17:58:54.313918,15.61,27.19,2.8445000000000005,0.825,3.4478787878787887,0.825,down
17:58:54.321428,15.58,27.44,2.9985,0.7699999999999999,3.894155844155845,0.7699999999999999,down
17:58:54.337129,12.55,27.18,3.4685,0.7529999999999998,4.6062416998672,0.7529999999999998,down
17:58:54.349183,16.01,26.94,3.426499999999999,0.7329999999999999,4.67462482946794,0.7329999999999999,down
17:58:54.360490,14.02,26.71,3.5700000000000003,0.7714999999999996,4.627349319507456,0.7714999999999996,down
17:58:54.369490,15.91,26.5,3.2340000000000004,0.8034999999999997,4.0248911014312405,0.8034999999999997,down
17:58:54.380196,21.65,26.75,3.5465000000000004,0.7794999999999999,4.549711353431689,0.7794999999999999,down
17:58:54.393676,26.22,26.5,4.1655,0.7515000000000001,5.542914171656686,0.7515000000000001,down
17:58:54.404807,24.4,26.71,4.7204999999999995,0.6644999999999996,7.103837471783299,0.6644999999999996,down
17:58:54.414577,19.69,26.42,4.5344999999999995,0.5839999999999996,7.764554794520552,0.5839999999999996,down
17:58:54.426486,18.53,26.6,4.1739999999999995,0.4834999999999997,8.632885211995868,0.4834999999999997,down
17:58:54.439327,15.19,26.29,4.0165,0.4615000000000002,8.703141928494038,0.4615000000000002,down
17:58:54.450831,13.69,26.45,3.832500000000001,0.4130000000000002,9.279661016949149,0.4130000000000002,down
17:58:54.460229,11.28,26.13,4.352,0.3900000000000005,11.158974358974344,0.3900000000000005,down
17:58:54.470421,9.93,26.28,4.902,0.3380000000000006,14.50295857988163,0.3380000000000006,down
17:58:54.482971,10.01,26.38,5.572,0.2635000000000008,21.146110056925927,0.2635000000000008,down
17:58:54.491528,10.04,26.01,5.423,0.2590000000000003,20.93822393822391,0.2590000000000003,down
17:58:54.502674,18.39,26.12,4.772,0.2245000000000001,21.256124721603555,0.2245000000000001,down
17:58:54.509957,15.46,25.74,4.01,0.2655000000000004,15.103578154425586,0.2655000000000004,down
17:58:54.526427,21.04,25.4,4.297000000000001,0.3150000000000005,13.64126984126982,0.3150000000000005,down
17:58:54.530972,18.28,25.55,4.5550000000000015,0.3615000000000005,12.600276625172876,0.3615000000000005,down
17:58:54.548509,18.4,25.2,4.7295,0.4115000000000005,11.49331713244227,0.4115000000000005,down
17:58:54.561185,16.31,24.89,4.414,0.5000000000000003,8.827999999999994,0.5000000000000003,down
17:58:54.572829,16.78,24.61,3.8435,0.5665000000000002,6.784642541924093,0.5665000000000002,down
17:58:54.579899,17.41,24.36,3.146,0.6585000000000004,4.777524677296884,0.6585000000000004,down
17:58:54.593303,16.08,24.12,2.5625000000000004,0.7709999999999997,3.3236057068741913,0.7709999999999997,up
17:58:54.606185,16.05,23.9,2.227,0.8465000000000004,2.6308328411104536,0.8465000000000004,down
17:58:54.614812,13.61,23.7,2.1255,0.9300000000000004,2.285483870967741,0.9300000000000004,down
17:58:54.625502,13.07,23.96,2.371,0.9280000000000002,2.554956896551724,0.9280000000000002,down
17:58:54.639556,12.6,23.72,2.0705000000000005,0.8995000000000004,2.30183435241801,0.8995000000000004,down
17:58:54.649229,10.33,23.49,2.26,0.8970000000000006,2.5195094760312133,0.8970000000000006,down
17:58:54.663591,23.89,23.28,2.66,0.8755000000000003,3.0382638492290113,0.8755000000000003,down
17:58:54.671417,24.97,23.09,3.5080000000000005,0.8490000000000002,4.131919905771495,0.8490000000000002,down
17:58:54.681704,23.95,23.35,4.273000000000001,0.7815000000000001,5.467690339091491,0.7815000000000001,down
17:58:54.697145,20.56,23.11,4.691000000000001,0.7184999999999999,6.528879610299236,0.7184999999999999,down
17:58:54.709388,16.84,23.34,4.629,0.6085000000000005,7.607230895645023,0.6085000000000005,down
17:58:54.715629,21.32,23.07,4.786500000000001,0.5215,9.178331735378718,0.5215,down
17:58:54.728859,23.48,22.82,4.747000000000002,0.4655000000000001,10.19763694951665,0.4655000000000001,down
17:58:54.742139,21.55,22.59,4.4110000000000005,0.4735000000000003,9.315733896515306,0.4735000000000003,down
17:58:54.754320,20.54,22.38,4.141000000000001,0.4935000000000002,8.39108409321175,0.4935000000000002,down
17:58:54.761667,19.66,22.64,3.745000000000002,0.4824999999999999,7.761658031088088,0.4824999999999999,down
17:58:54.772942,16.68,22.39,3.3885000000000005,0.473,7.163847780126851,0.473,down
17:58:54.779901,18.3,22.16,2.7230000000000003,0.4580000000000002,5.945414847161571,0.4580000000000002,down
17:58:54.798790,23.02,21.95,2.1815000000000007,0.4885000000000005,4.46571136131013,0.4885000000000005,down
17:58:54.806282,23.14,21.76,1.9530000000000003,0.5130000000000006,3.807017543859646,0.5130000000000006,down
17:58:54.814873,19.17,22.03,2.0895,0.5405000000000001,3.86586493987049,0.5405000000000001,down
17:58:54.831587,19.39,21.79,1.8985000000000003,0.5610000000000003,3.3841354723707653,0.5610000000000003,down
17:58:54.839652,16.54,22.02,1.943,0.5195000000000001,3.740134744947064,0.5195000000000001,down
17:58:54.848755,19.87,21.75,1.9660000000000004,0.4864999999999998,4.041109969167525,0.4864999999999998,down
17:58:54.863886,22.4,21.95,2.164,0.4179999999999996,5.1770334928229715,0.4179999999999996,down
17:58:54.873813,24.48,22.11,2.4715,0.3864999999999998,6.394566623544633,0.3864999999999998,down
17:58:54.881279,23.08,22.22,2.24,0.3544999999999998,6.318758815232725,0.3544999999999998,down
17:58:54.897042,18.57,22.3,2.2715,0.3289999999999999,6.904255319148938,0.3289999999999999,down
17:58:54.908909,14.96,21.91,2.4915,0.2699999999999996,9.227777777777792,0.2699999999999996,down
17:58:54.921855,19.71,22.0,2.2865,0.1979999999999993,11.547979797979837,0.1979999999999993,down
17:58:54.930039,20.53,21.62,2.1845000000000003,0.1979999999999996,11.032828282828303,0.1979999999999996,down
17:58:54.942667,21.17,21.73,2.2105,0.1744999999999997,12.667621776504316,0.1744999999999997,down
17:58:54.954395,24.52,21.36,2.279,0.2239999999999998,10.17410714285715,0.2239999999999998,down
17:58:54.965585,23.35,21.03,2.401,0.2864999999999998,8.380453752181504,0.2864999999999998,down
17:58:54.975451,23.52,20.73,2.2529999999999997,0.3919999999999998,5.747448979591839,0.3919999999999998,up
17:58:54.988068,24.07,20.46,1.9625,0.5009999999999998,3.917165668662676,0.5009999999999998,down
17:58:54.998791,19.98,20.22,1.855,0.6045000000000001,3.068651778329197,0.6045000000000001,down
17:58:55.007618,18.47,20.0,1.8365000000000005,0.6925000000000001,2.6519855595667874,0.6925000000000001,down
17:58:55.017665,19.99,20.25,1.455500000000001,0.7480000000000004,1.9458556149732615,0.7480000000000004,down
17:58:55.030080,21.1,20.0,1.4430000000000007,0.8065000000000004,1.7892126472411654,0.8065000000000004,down
17:58:55.045291,21.87,20.22,1.4040000000000004,0.7845000000000006,1.7896749521988518,0.7845000000000006,down
17:58:55.056799,22.02,19.94,1.3145000000000002,0.7895000000000003,1.6649778340721972,0.7895000000000003,down
17:58:55.065343,24.94,20.14,1.2470000000000006,0.7405000000000002,1.6839972991222152,0.7405000000000002,down
17:58:55.074604,21.0,19.84,1.1390000000000005,0.6845000000000002,1.6639883126369617,0.6845000000000002,down
17:58:55.090546,19.01,19.58,1.2035000000000005,0.6245000000000005,1.927141713370696,0.6245000000000005,down
17:58:55.101052,20.89,19.34,1.0145000000000004,0.5690000000000005,1.7829525483304034,0.5690000000000005,down
17:58:55.111284,25.84,19.12,1.4065,0.5269999999999999,2.66888045540797,0.5269999999999999,down
17:58:55.122464,24.67,19.37,1.487,0.4594999999999999,3.236126224156693,0.4594999999999999,down
17:58:55.131519,24.05,19.12,1.6115,0.4554999999999996,3.5378704720087844,0.4554999999999996,down
17:58:55.148059,20.3,19.34,1.7724999999999995,0.4094999999999998,4.328449328449329,0.4094999999999998,down
17:58:55.156283,17.28,19.07,2.1605,0.4244999999999997,5.089517078916375,0.4244999999999997,down
17:58:55.163947,15.43,18.82,2.7045,0.4469999999999999,6.0503355704698,0.4469999999999999,down
17:58:55.180455,16.65,18.6,2.7994999999999997,0.502,5.576693227091633,0.502,up
17:58:55.191095,15.19,18.4,3.1975,0.5400000000000003,5.921296296296294,0.5400000000000003,up
17:58:55.201372,13.39,18.66,3.5335,0.5344999999999999,6.61085126286249,0.5344999999999999,down
17:58:55.213122,11.93,18.42,4.031499999999999,0.5209999999999997,7.738003838771597,0.5209999999999997,down
17:58:55.225894,13.64,18.65,3.792499999999999,0.4450000000000003,8.522471910112353,0.4450000000000003,down
17:58:55.232526,11.02,18.39,3.903,0.4195000000000004,9.30393325387365,0.4195000000000004,down
17:58:55.246396,10.67,18.6,4.067,0.3630000000000002,11.203856749311289,0.3630000000000002,down
17:58:55.256989,19.06,18.31,4.366999999999999,0.3785000000000004,11.537648612945825,0.3785000000000004,down
17:58:55.269930,27.28,18.06,5.2305,0.3950000000000006,13.241772151898711,0.3950000000000006,down
17:58:55.278016,28.85,17.83,6.1225000000000005,0.4010000000000008,15.268079800498722,0.4010000000000008,down
17:58:55.290260,29.72,17.62,7.258500000000001,0.4155000000000008,17.46931407942235,0.4155000000000008,down
17:58:55.303427,27.27,17.88,7.903999999999999,0.3905000000000008,20.240717029449375,0.3905000000000008,down
17:58:55.314905,25.45,17.64,7.6835,0.4015000000000007,19.136986301369827,0.4015000000000007,down
17:58:55.324513,22.68,17.42,7.3184999999999985,0.4040000000000006,18.11509900990096,0.4040000000000006,down
17:58:55.334920,18.81,17.22,7.603999999999999,0.4585000000000001,16.584514721919298,0.4585000000000001,down
17:58:55.348015,18.64,17.49,7.7174999999999985,0.4565000000000001,16.90580503833515,0.4565000000000001,down
17:58:55.359442,30.8,17.7,7.787000000000001,0.457,17.039387308533918,0.457,down
17:58:55.367102,36.71,17.42,8.266,0.4489999999999998,18.40979955456571,0.4489999999999998,down
17:58:55.380214,36.94,17.17,7.8675,0.4424999999999993,17.779661016949177,0.4424999999999993,down
17:58:55.393143,34.03,16.95,6.977499999999999,0.434999999999999,16.040229885057503,0.434999999999999,down
17:58:55.405987,27.54,17.19,5.460499999999999,0.3804999999999993,14.350854139290432,0.3804999999999993,down
17:58:55.413720,24.08,16.94,4.609999999999999,0.3714999999999989,12.409152086137317,0.3714999999999989,down
17:58:55.427169,23.14,17.16,4.557499999999999,0.3214999999999989,14.175738724727884,0.3214999999999989,down
17:58:55.438094,21.77,16.89,4.8229999999999995,0.2954999999999991,16.321489001692097,0.2954999999999991,down
17:58:55.447143,21.87,16.64,4.6915,0.2844999999999992,16.49033391915646,0.2844999999999992,down
17:58:55.457788,25.48,16.43,4.252,0.322499999999999,13.184496124031046,0.322499999999999,down
17:58:55.470053,29.02,16.23,4.058999999999999,0.3909999999999993,10.381074168797973,0.3909999999999993,down
17:58:55.483359,26.51,16.05,3.166999999999999,0.4564999999999991,6.937568455640757,0.4564999999999991,down
17:58:55.495767,25.02,15.89,2.3019999999999996,0.5054999999999993,4.553907022749758,0.5054999999999993,down
17:58:55.502489,20.4,16.18,2.163499999999999,0.4904999999999994,4.4108053007135615,0.4904999999999994,down
17:58:55.516634,17.27,15.97,2.7839999999999994,0.5034999999999992,5.529294935451845,0.5034999999999992,down
17:58:55.526699,20.05,15.79,2.7879999999999994,0.5069999999999991,5.499013806706123,0.5069999999999991,down
17:58:55.539342,16.4,15.62,3.0629999999999997,0.5519999999999996,5.548913043478264,0.5519999999999996,down
17:58:55.547753,13.48,15.46,3.4244999999999997,0.5779999999999997,5.924740484429067,0.5779999999999997,down
17:58:55.559405,19.36,15.32,3.117,0.5864999999999998,5.3145780051150915,0.5864999999999998,down
17:58:55.574956,18.84,15.18,3.1005000000000003,0.5899999999999999,5.255084745762714,0.5899999999999999,down
17:58:55.581789,21.2,15.06,2.999,0.5829999999999996,5.144082332761582,0.5829999999999996,down
17:58:55.593942,24.48,14.94,3.425,0.5564999999999998,6.154537286612761,0.5564999999999998,down
17:58:55.607723,22.84,14.83,3.7155,0.5249999999999998,7.07714285714286,0.5249999999999998,down
17:58:55.615848,20.37,15.18,3.3670000000000018,0.4964999999999998,6.781470292044316,0.4964999999999998,down
17:58:55.626850,17.18,15.01,2.985500000000001,0.4775,6.25235602094241,0.4775,down
17:58:55.639149,20.52,15.3,2.8055000000000003,0.4480000000000002,6.262276785714283,0.4480000000000002,down
17:58:55.652012,19.18,15.09,2.3320000000000003,0.4029999999999999,5.786600496277917,0.4029999999999999,down
17:58:55.658239,22.63,15.35,1.7850000000000006,0.3694999999999998,4.830852503382954,0.3694999999999998,down
17:58:55.669774,26.25,15.11,2.2375000000000003,0.3094999999999999,7.229402261712443,0.3094999999999999,down
17:58:55.683844,23.69,14.9,2.328500000000001,0.2609999999999998,8.92145593869733,0.2609999999999998,down
17:58:55.694788,22.79,14.7,2.1870000000000003,0.2315000000000001,9.447084233261336,0.2315000000000001,down
17:58:55.708203,23.29,14.98,1.7675,0.1785000000000002,9.901960784313715,0.1785000000000002,down
17:58:55.717863,20.14,14.75,1.5974999999999997,0.1525000000000002,10.475409836065555,0.1525000000000002,down
17:58:55.727541,18.17,14.55,1.8714999999999993,0.1900000000000002,9.849999999999984,0.1900000000000002,down
17:58:55.741318,21.34,14.81,1.683499999999999,0.1860000000000003,9.051075268817186,0.1860000000000003,down
17:58:55.744535,17.85,14.58,2.0314999999999994,0.2015000000000002,10.08188585607939,0.2015000000000002,down
17:58:55.761159,16.46,14.81,2.515499999999999,0.1970000000000002,12.769035532994904,0.1970000000000002,down
17:58:55.774073,22.94,14.56,2.3844999999999996,0.1975000000000003,12.073417721518966,0.1975000000000003,down
17:58:55.782784,18.77,14.78,2.0424999999999995,0.1980000000000002,10.315656565656552,0.1980000000000002,down
17:58:55.798263,17.78,14.5,2.0324999999999993,0.2030000000000003,10.012315270935945,0.2030000000000003,down
17:58:55.807533,19.28,14.26,2.05,0.2085,9.832134292565945,0.2085,down
17:58:55.814099,17.52,14.04,2.0869999999999997,0.2545000000000001,8.20039292730844,0.2545000000000001,down
17:58:55.829943,14.31,13.85,2.3135,0.2950000000000001,7.84237288135593,0.2950000000000001,down
17:58:55.844354,18.2,14.13,1.9905,0.2905000000000001,6.851979345955248,0.2905000000000001,down
17:58:55.851234,16.76,13.9,2.0315000000000003,0.3254999999999999,6.241167434715825,0.3254999999999999,down
17:58:55.862138,16.74,14.15,1.7090000000000003,0.3034999999999998,5.630971993410219,0.3034999999999998,down
17:58:55.875612,16.01,14.34,1.3205000000000005,0.3169999999999998,4.16561514195584,0.3169999999999998,down
17:58:55.889166,14.78,14.05,1.469,0.3039999999999997,4.832236842105268,0.3039999999999997,down
17:58:55.896990,13.17,14.24,1.6299999999999997,0.3124999999999998,5.216000000000002,0.3124999999999998,down
17:58:55.908381,15.69,13.95,1.531,0.3039999999999999,5.036184210526318,0.3039999999999999,down
17:58:55.917666,13.48,14.13,1.7425000000000002,0.2675,6.514018691588784,0.2675,down
17:58:55.933550,13.4,13.83,1.831,0.2404999999999999,7.613305613305616,0.2404999999999999,down
17:58:55.942942,14.03,14.01,1.5815,0.1779999999999999,8.88483146067416,0.1779999999999999,down
17:58:55.952385,12.68,13.71,1.7365,0.1699999999999999,10.214705882352945,0.1699999999999999,down
17:58:55.966931,12.84,13.44,1.7224999999999997,0.1810000000000002,9.516574585635349,0.1810000000000002,down
17:58:55.978639,11.16,13.21,1.8595,0.2525000000000002,7.364356435643558,0.2525000000000002,down
17:58:55.988002,10.98,13.0,1.926,0.3280000000000003,5.871951219512191,0.3280000000000003,down
17:58:56.021939,9.13,13.26,2.0774999999999997,0.3700000000000003,5.61486486486486,0.3700000000000003,down
17:58:56.028469,16.46,13.02,2.0534999999999997,0.4155000000000003,4.94223826714801,0.4155000000000003,down
17:58:56.062777,14.78,13.26,2.1509999999999994,0.4105000000000002,5.239951278928133,0.4105000000000002,down
17:58:56.070527,14.95,13.0,2.096999999999999,0.4325000000000001,4.8485549132947945,0.4325000000000001,down
17:58:56.072979,13.01,13.22,1.9219999999999993,0.4085000000000001,4.705018359853119,0.4085000000000001,down
17:58:56.074984,14.97,12.95,2.0059999999999993,0.4270000000000001,4.69789227166276,0.4270000000000001,down
17:58:56.074984,17.5,12.71,2.1939999999999995,0.4355,5.037887485648678,0.4355,down
17:58:56.076992,17.65,12.5,2.3809999999999993,0.4274999999999999,5.569590643274854,0.4274999999999999,down
17:58:56.088652,16.53,12.31,2.3099999999999996,0.4194999999999999,5.506555423122766,0.4194999999999999,down
17:58:56.101438,19.1,12.59,2.4179999999999997,0.3689999999999998,6.552845528455288,0.3689999999999998,down
17:58:56.110236,18.93,12.37,2.274,0.3639999999999999,6.247252747252749,0.3639999999999999,down
17:58:56.121070,23.33,12.62,2.5714999999999995,0.3129999999999999,8.215654952076678,0.3129999999999999,down
17:58:56.131619,19.04,12.38,2.5519999999999996,0.3264999999999999,7.816232771822359,0.3264999999999999,down
17:58:56.147230,18.98,12.16,2.4379999999999997,0.3389999999999998,7.191740412979353,0.3389999999999998,down
17:58:56.152200,20.92,11.97,2.6260000000000003,0.384,6.838541666666667,0.384,down
17:58:56.160110,26.99,12.25,3.219500000000001,0.3699999999999999,8.701351351351356,0.3699999999999999,down
17:58:56.174788,24.48,12.47,3.4,0.3390000000000001,10.029498525073745,0.3390000000000001,down
17:58:56.190363,22.05,12.2,3.3255000000000003,0.3020000000000001,11.011589403973506,0.3020000000000001,down
17:58:56.200253,28.75,12.42,3.895000000000001,0.2375000000000001,16.399999999999988,0.2375000000000001,down
17:58:56.210238,29.75,12.14,4.2625,0.216,19.733796296296298,0.216,down
17:58:56.223989,24.24,11.9,4.064500000000001,0.2024999999999998,20.071604938271623,0.2024999999999998,down
17:58:56.233076,25.7,11.68,3.567000000000001,0.2479999999999998,14.383064516129044,0.2479999999999998,down
17:58:56.243936,29.66,11.49,3.8775000000000017,0.2914999999999999,13.301886792452835,0.2914999999999999,down
17:58:56.257365,27.95,11.32,3.969000000000001,0.3264999999999999,12.156202143951004,0.3264999999999999,down
17:58:56.269660,27.67,11.17,3.806500000000001,0.3644999999999997,10.443072702331971,0.3644999999999997,down
17:58:56.280154,26.93,11.48,3.045500000000001,0.3829999999999997,7.951697127937346,0.3829999999999997,down
17:58:56.291904,22.12,11.29,3.022500000000001,0.4029999999999997,7.500000000000007,0.4029999999999997,down
17:58:56.298795,22.38,11.56,3.310500000000001,0.3924999999999997,8.434394904458607,0.3924999999999997,down
17:58:56.314995,24.26,11.34,2.7895000000000008,0.4024999999999997,6.930434782608703,0.4024999999999997,down
17:58:56.326213,22.59,11.14,2.3225000000000007,0.4124999999999998,5.630303030303034,0.4124999999999998,down
17:58:56.335851,24.13,10.97,2.3620000000000005,0.4159999999999998,5.677884615384619,0.4159999999999998,down
17:58:56.347453,19.95,11.26,2.6525000000000007,0.3704999999999998,7.159244264507428,0.3704999999999998,down
17:58:56.358124,18.85,11.05,2.6465000000000005,0.3269999999999996,8.093272171253833,0.3269999999999996,down
17:58:56.371235,17.54,10.86,2.9805,0.2889999999999997,10.313148788927348,0.2889999999999997,down
17:58:56.379924,22.8,10.7,2.978,0.2539999999999997,11.72440944881891,0.2539999999999997,down
17:58:56.393005,24.93,10.55,3.1855,0.2774999999999998,11.479279279279286,0.2774999999999998,down
17:58:56.404128,21.21,10.87,2.795,0.2619999999999999,10.667938931297714,0.2619999999999999,down
17:58:56.412349,19.98,11.12,2.4949999999999997,0.2694999999999997,9.257884972170697,0.2694999999999997,down
17:58:56.425774,17.15,11.33,2.634,0.2869999999999996,9.177700348432069,0.2869999999999996,down
17:58:56.438082,14.93,11.05,2.8985,0.2639999999999995,10.979166666666686,0.2639999999999995,down
17:58:56.449913,17.23,11.26,3.0304999999999995,0.2489999999999995,12.170682730923716,0.2489999999999995,down
17:58:56.457043,16.02,10.98,2.8234999999999997,0.2479999999999995,11.385080645161311,0.2479999999999995,down
17:58:56.465029,20.62,10.73,2.5585,0.2449999999999997,10.442857142857154,0.2449999999999997,down
17:58:56.480186,18.26,10.96,2.15,0.2104999999999997,10.213776722090277,0.2104999999999997,down
17:58:56.492115,16.92,10.69,2.2009999999999996,0.1884999999999998,11.676392572944309,0.1884999999999998,down
17:58:56.497645,15.38,10.91,2.1374999999999993,0.1399999999999998,15.267857142857157,0.1399999999999998,down
17:58:56.513723,14.12,10.64,2.3015,0.1589999999999996,14.474842767295629,0.1589999999999996,down
17:58:56.527076,15.4,10.41,2.2165,0.2004999999999999,11.054862842892772,0.2004999999999999,down
17:58:56.539795,19.47,10.64,2.1719999999999997,0.1865,11.64611260053619,0.1865,down
17:58:56.548820,18.46,10.39,1.8069999999999993,0.2145000000000001,8.424242424242415,0.2145000000000001,down
17:58:56.561276,21.35,10.17,1.9659999999999995,0.2430000000000001,8.090534979423863,0.2430000000000001,down
17:58:56.572708,22.98,9.97,2.2104999999999997,0.3065000000000001,7.21207177814029,0.3065000000000001,down
17:58:56.584982,19.66,10.25,2.1544999999999996,0.3145000000000001,6.850556438791729,0.3145000000000001,down
17:58:56.593186,19.32,10.03,2.1114999999999995,0.3505000000000002,6.024251069900137,0.3505000000000002,down
17:58:56.605860,16.05,10.28,2.3129999999999997,0.3280000000000003,7.051829268292676,0.3280000000000003,down
17:58:56.611839,15.2,10.04,2.501,0.3445000000000003,7.259796806966611,0.3445000000000003,down
17:58:56.630283,14.55,9.82,2.6434999999999995,0.3505000000000004,7.542082738944354,0.3505000000000004,down
17:58:56.638029,14.0,9.64,3.0254999999999996,0.3445000000000003,8.782293178519584,0.3445000000000003,down
17:58:56.649027,14.1,9.47,3.041,0.3830000000000003,7.939947780678844,0.3830000000000003,down
17:58:56.660112,15.49,9.77,2.9305000000000008,0.3740000000000004,7.835561497326197,0.3740000000000004,down
17:58:56.667726,15.91,9.57,2.575500000000001,0.3570000000000004,7.214285714285709,0.3570000000000004,down
17:58:56.683306,15.75,9.39,2.1265,0.3305000000000003,6.434190620272308,0.3305000000000003,down
17:58:56.695803,12.62,9.24,2.269000000000001,0.3495000000000002,6.492131616595133,0.3495000000000002,down
17:58:56.707586,14.23,9.54,2.2905000000000006,0.3190000000000003,7.180250783699055,0.3190000000000003,down
17:58:56.713675,19.09,9.8,2.4280000000000004,0.3330000000000002,7.291291291291288,0.3330000000000002,down
17:58:56.726996,19.48,9.56,2.5050000000000003,0.3110000000000001,8.05466237942122,0.3110000000000001,down
17:58:56.741000,17.36,9.79,2.245,0.2944999999999999,7.623089983022075,0.2944999999999999,down
17:58:56.753201,16.21,9.54,1.7940000000000005,0.249,7.2048192771084345,0.249,down
17:58:56.761662,14.81,9.76,1.5804999999999998,0.2119999999999999,7.455188679245285,0.2119999999999999,down
17:58:56.774155,13.57,9.5,1.7784999999999995,0.1939999999999999,9.167525773195877,0.1939999999999999,down
17:58:56.780339,14.31,9.27,1.8545,0.1884999999999999,9.838196286472147,0.1884999999999999,down
17:58:56.798102,12.77,9.07,2.0204999999999997,0.1949999999999999,10.361538461538464,0.1949999999999999,down
17:58:56.806742,16.21,8.89,1.818,0.2134999999999998,8.515222482435606,0.2134999999999998,down
17:58:56.816821,15.9,8.73,1.769,0.2859999999999996,6.185314685314695,0.2859999999999996,down
17:58:56.831220,15.73,8.59,1.356,0.3459999999999995,3.919075144508676,0.3459999999999995,down
17:58:56.839076,20.22,8.92,1.3504999999999998,0.3704999999999995,3.645074224021597,0.3704999999999995,down
17:58:56.850023,19.27,8.74,1.5219999999999998,0.3734999999999998,4.07496653279786,0.3734999999999998,down
17:58:56.864125,21.39,8.58,2.0414999999999996,0.4049999999999997,5.040740740740744,0.4049999999999997,down
17:58:56.873341,23.02,8.44,2.6359999999999997,0.423,6.231678486997635,0.423,down
17:58:56.882036,20.27,8.31,2.6629999999999994,0.4604999999999998,5.7828447339848,0.4604999999999998,down
17:58:56.896641,17.93,8.2,2.6329999999999996,0.4795,5.4911366006256515,0.4795,down
17:58:56.907353,19.72,8.1,2.4764999999999993,0.4810000000000002,5.148648648648645,0.4810000000000002,down
17:58:56.919379,17.56,8.45,2.5999999999999996,0.4225000000000005,6.153846153846146,0.4225000000000005,up
17:58:56.930070,14.65,8.3,3.068999999999999,0.3580000000000005,8.572625698324007,0.3580000000000005,down
17:58:56.939901,14.08,8.61,3.601999999999999,0.2950000000000005,12.2101694915254,0.2950000000000005,down
17:58:56.954808,18.36,8.42,3.2069999999999994,0.2710000000000004,11.833948339483372,0.2710000000000004,down
17:58:56.965566,17.14,8.7,2.961999999999999,0.2725000000000003,10.869724770642186,0.2725000000000003,down
17:58:56.973888,21.31,8.48,2.720999999999999,0.2450000000000002,11.106122448979576,0.2450000000000002,down
17:58:56.982633,26.07,8.29,2.8169999999999993,0.2150000000000002,13.102325581395332,0.2150000000000002,down
17:58:56.999545,23.82,8.13,3.1314999999999995,0.1955000000000001,16.017902813299216,0.1955000000000001,down
17:58:57.007951,20.27,7.98,3.187499999999999,0.1875,16.999999999999996,0.1875,down
17:58:57.019871,17.4,8.3,3.220999999999999,0.1449999999999997,22.21379310344831,0.1449999999999997,down
17:58:57.032296,15.67,8.11,3.248499999999999,0.1574999999999997,20.62539682539685,0.1574999999999997,down
17:58:57.043480,18.96,7.95,2.7939999999999996,0.1774999999999997,15.740845070422552,0.1774999999999997,down
17:58:57.051564,21.46,7.8,2.437,0.2019999999999999,12.064356435643566,0.2019999999999999,down
17:58:57.063286,29.23,7.68,3.2355000000000005,0.2450000000000001,13.206122448979588,0.2450000000000001,down
17:58:57.076518,24.62,7.56,3.458500000000001,0.2665000000000002,12.977485928705436,0.2665000000000002,down
17:58:57.090323,21.49,7.46,3.1435000000000004,0.3120000000000001,10.075320512820513,0.3120000000000001,down
17:58:57.096535,22.49,7.37,2.4524999999999997,0.355,6.908450704225351,0.355,down
17:58:57.110281,21.62,7.29,1.8994999999999995,0.3770000000000001,5.0384615384615365,0.3770000000000001,down
17:58:57.122786,19.62,7.21,1.9619999999999995,0.3800000000000001,5.163157894736839,0.3800000000000001,down
17:58:57.129938,17.97,7.14,2.2565,0.4110000000000003,5.490267639902672,0.4110000000000003,up
17:58:57.140424,24.49,7.53,2.3289999999999997,0.3955000000000002,5.888748419721868,0.3955000000000002,down
17:58:57.154812,20.85,7.4,2.3695,0.3640000000000001,6.5096153846153815,0.3640000000000001,down
17:58:57.164514,17.91,7.28,2.5494999999999997,0.3335,7.644677661169414,0.3335,down
17:58:57.175339,17.88,7.18,2.0345,0.3044999999999999,6.681444991789822,0.3044999999999999,down
17:58:57.183222,17.88,7.09,1.9464999999999997,0.2754999999999999,7.065335753176044,0.2754999999999999,down
17:58:57.199533,24.91,7.45,2.4125,0.2414999999999999,9.9896480331263,0.2414999999999999,down
17:58:57.211211,26.58,7.31,2.9455000000000005,0.1934999999999998,15.222222222222236,0.1934999999999998,down
17:58:57.220744,27.2,7.18,3.6275,0.1549999999999999,23.40322580645163,0.1549999999999999,down
17:58:57.231098,24.04,7.07,3.6015,0.1299999999999999,27.70384615384616,0.1299999999999999,down
17:58:57.244655,19.71,7.41,3.5244999999999997,0.1045,33.72727272727273,0.1045,down
17:58:57.256426,19.42,7.25,3.3169999999999993,0.1025,32.36097560975608,0.1025,down
17:58:57.262046,18.42,7.11,3.361,0.11,30.554545454545437,0.11,down
17:58:57.276164,16.98,7.43,3.2550000000000003,0.121,26.900826446280977,0.121,down
17:58:57.290673,18.14,7.25,3.0684999999999993,0.106,28.94811320754715,0.106,down
17:58:57.297853,17.21,7.1,3.0685,0.1015,30.231527093596043,0.1015,down
17:58:57.309102,18.17,6.96,2.6759999999999997,0.1105,24.217194570135735,0.1105,down
17:58:57.322636,17.27,7.28,2.1439999999999997,0.1145000000000001,18.7248908296943,0.1145000000000001,down
17:58:57.333716,14.15,7.55,1.8480000000000003,0.138,13.391304347826082,0.138,down
17:58:57.339319,13.35,7.33,2.124,0.1285,16.529182879377434,0.1285,down
17:58:57.355928,16.34,7.13,1.9405000000000008,0.129,15.042635658914731,0.129,down
17:58:57.368324,15.76,6.96,1.988,0.1504999999999999,13.209302325581405,0.1504999999999999,down
17:58:57.380597,27.02,7.26,2.8660000000000005,0.1404999999999999,20.39857651245553,0.1404999999999999,down
17:58:57.388920,32.19,7.06,4.1025,0.1319999999999999,31.079545454545467,0.1319999999999999,down
17:58:57.399617,31.27,7.33,5.3629999999999995,0.1454999999999999,36.85910652920964,0.1454999999999999,down
17:58:57.412915,33.72,7.11,6.727499999999999,0.1389999999999998,48.399280575539606,0.1389999999999998,down
17:58:57.423586,27.85,7.36,7.223000000000001,0.1224999999999999,58.96326530612247,0.1224999999999999,down
17:58:57.431652,22.6,7.12,7.341499999999999,0.1234999999999999,59.44534412955468,0.1234999999999999,down
17:58:57.444316,28.94,6.91,7.091499999999999,0.1149999999999999,61.66521739130437,0.1149999999999999,down
17:58:57.455984,25.44,7.18,6.855499999999999,0.1139999999999999,60.13596491228071,0.1139999999999999,down
17:58:57.464996,25.75,6.95,6.934,0.1184999999999999,58.51476793248947,0.1184999999999999,down
17:58:57.478484,26.48,7.2,6.895999999999999,0.1004999999999999,68.61691542288557,0.1004999999999999,down
17:58:57.491038,24.24,6.96,6.196,0.1155,53.64502164502163,0.1155,down
17:58:57.501358,25.22,7.2,4.790500000000001,0.1075,44.56279069767442,0.1075,down
17:58:57.508293,29.17,6.95,3.693000000000001,0.1105,33.420814479638004,0.1105,down
17:58:57.522827,26.86,7.18,2.1675000000000004,0.1049999999999999,20.64285714285715,0.1049999999999999,down
17:58:57.530062,23.91,6.92,1.7655000000000003,0.1079999999999999,16.34722222222224,0.1079999999999999,down
17:58:57.547209,23.86,6.7,1.7180000000000004,0.1259999999999999,13.63492063492065,0.1259999999999999,down
17:58:57.556317,22.1,6.95,1.8905,0.1049999999999999,18.004761904761924,0.1049999999999999,down
17:58:57.565718,23.55,6.71,1.8089999999999995,0.1234999999999999,14.647773279352233,0.1234999999999999,down
17:58:57.580539,25.43,6.95,1.7104999999999997,0.1069999999999999,15.98598130841122,0.1069999999999999,down
17:58:57.591384,30.33,6.7,2.175,0.1269999999999999,17.12598425196851,0.1269999999999999,down
17:58:57.599770,33.3,6.49,2.6799999999999993,0.1559999999999999,17.17948717948718,0.1559999999999999,down
17:58:57.613681,27.25,6.3,2.700999999999999,0.2024999999999999,13.33827160493827,0.2024999999999999,down
17:58:57.624881,25.93,6.14,2.420499999999999,0.2425,9.981443298969069,0.2425,down
17:58:57.634932,23.75,6.0,2.4379999999999997,0.3095,7.877221324717284,0.3095,down
17:58:57.644914,19.58,5.87,2.776,0.3700000000000001,7.5027027027027,0.3700000000000001,down
17:58:57.658735,19.8,5.76,3.0814999999999997,0.4080000000000001,7.55269607843137,0.4080000000000001,down
17:58:57.671528,22.25,5.66,2.9925,0.4635000000000001,6.45631067961165,0.4635000000000001,down
17:58:57.678890,18.78,5.58,3.4555000000000007,0.4885,7.073694984646879,0.4885,down
17:58:57.691278,21.12,5.5,3.5735,0.5320000000000001,6.717105263157893,0.5320000000000001,down
17:58:57.702471,19.33,5.43,3.249,0.5455000000000001,5.956003666361136,0.5455000000000001,down
17:58:57.716289,19.54,5.37,2.5435000000000008,0.535,4.754205607476637,0.535,down
17:58:57.723101,16.1,5.76,2.7920000000000003,0.4885,5.715455475946776,0.4885,down
17:58:57.735319,14.19,6.08,3.304,0.469,7.044776119402984,0.469,down
17:58:57.748270,11.83,5.91,3.9724999999999993,0.419,9.480906921241049,0.419,down
17:58:57.756011,17.0,6.2,3.6715,0.3955,9.283185840707963,0.3955,down
17:58:57.762040,17.98,6.0,3.2325000000000004,0.361,8.954293628808864,0.361,down
17:58:57.780311,16.91,6.27,3.0565,0.3485,8.770444763271161,0.3485,down
17:58:57.793342,16.34,6.04,2.537,0.308,8.237012987012987,0.308,down
17:58:57.799471,15.02,5.85,2.5095,0.275,9.125454545454543,0.275,down
17:58:57.813079,19.52,5.68,2.5635,0.264,9.71022727272727,0.264,down
17:58:57.825784,16.5,5.54,2.4794999999999994,0.2715000000000001,9.132596685082868,0.2715000000000001,down
17:58:57.839154,14.65,5.86,2.2975000000000003,0.2760000000000001,8.32427536231884,0.2760000000000001,down
18:03:24.114355,47.12,1151.27,4.8020000000000005,114.7705,0.041840019865732,4.8020000000000005,yaw towards left
18:03:24.124287,47.25,1175.79,7.071000000000001,231.7275,0.0305142894132116,7.071000000000001,yaw towards left
18:03:24.132270,51.87,1156.47,10.308,346.72350000000006,0.0297297414221995,10.308,yaw towards left
18:03:24.144971,48.81,1179.56,13.3275,464.035,0.0287208938980895,13.3275,yaw towards left
18:03:24.157723,53.28,1198.66,15.2655,525.992,0.0290223045217417,15.2655,yaw towards left
18:03:24.171655,47.16,1177.53,15.206,528.3495,0.0287801918994907,15.206,yaw towards left
18:03:24.182581,53.93,1196.74,15.718,531.4,0.0295784719608581,15.718,yaw towards left
18:03:24.191193,51.97,1176.09,15.822500000000002,531.3875,0.029775822728235,15.822500000000002,yaw towards left
18:03:24.203542,49.05,1195.33,15.8265,533.198,0.0296822193631634,15.8265,yaw towards left
18:03:24.215849,50.68,1174.63,15.731,533.4065,0.0294915791239889,15.731,yaw towards left
18:03:24.228372,49.4,1193.46,12.7535,420.3665,0.03033900179962,12.7535,yaw towards left
18:03:24.236720,58.19,1208.49,10.4155,305.5875,0.0340835276312022,10.4155,yaw towards left
18:03:24.248525,57.21,1186.96,7.5615,190.8675,0.0396164878777162,7.5615,yaw towards left
18:03:24.261366,58.57,1203.24,5.096500000000001,74.41149999999998,0.0684907574770029,5.096500000000001,yaw towards left
18:03:24.271690,60.57,1183.13,3.8624999999999994,13.11899999999996,0.2944203064257955,3.8624999999999994,yaw towards left
18:03:24.283278,58.37,1199.81,4.140499999999999,11.294499999999948,0.3665943600867695,4.140499999999999,yaw towards left
18:03:24.294199,59.36,1179.93,3.633999999999999,9.261499999999955,0.392377044755171,3.633999999999999,yaw towards left
18:03:24.305498,58.71,1196.93,3.282999999999999,9.499999999999975,0.3455789473684218,3.282999999999999,yaw towards left
18:03:24.316768,59.74,1209.95,3.3979999999999997,9.123499999999968,0.3724447854441838,3.3979999999999997,yaw towards left
18:03:24.330397,58.54,1190.13,3.317999999999999,9.411999999999988,0.3525286867828308,3.317999999999999,yaw towards left
18:03:24.336780,55.6,1204.47,3.549499999999999,8.530500000000007,0.4160951878553421,3.549499999999999,yaw towards left
18:03:24.349749,50.72,1185.18,3.6414999999999993,7.167500000000018,0.5080572026508532,3.6414999999999993,yaw towards left
18:03:24.362897,52.57,1200.11,3.651499999999999,7.016500000000019,0.5204161619040817,3.651499999999999,yaw towards left
18:03:24.374600,54.99,1181.63,3.403499999999999,7.322000000000026,0.46483201311117,3.403499999999999,yaw towards left
18:03:24.383801,57.26,1196.48,2.696999999999999,6.636500000000024,0.40638890981692,2.696999999999999,yaw towards left
18:03:24.394669,59.39,1208.59,2.566,7.283500000000027,0.3523031509576427,2.566,yaw towards left
18:03:24.408091,59.65,1190.4,2.575,6.8860000000000126,0.3739471391228573,2.575,yaw towards left
18:03:24.420719,69.02,1203.28,3.644,7.130999999999995,0.5110082737343994,3.644,yaw towards left
18:03:24.428812,58.45,1186.03,3.5764999999999993,6.396500000000015,0.5591339013523007,3.5764999999999993,yaw towards left
18:03:24.440835,50.06,1199.87,4.211999999999999,6.0595000000000026,0.6951068570014023,4.211999999999999,yaw towards left
18:03:24.448374,50.93,1182.38,4.435999999999999,6.5554999999999835,0.6766837007093296,4.435999999999999,yaw towards left
18:03:24.462747,50.23,1196.17,4.241999999999999,5.735999999999967,0.739539748953979,4.241999999999999,yaw towards left
18:03:24.477428,55.36,1206.5,3.7385,6.579499999999962,0.5682042708412526,3.7385,yaw towards left
18:03:24.485328,57.39,1190.0,3.3985,6.021999999999958,0.5643473928927306,3.3985,yaw towards left
18:03:24.499528,59.35,1201.57,3.486,6.354499999999962,0.5485876150759337,3.486,yaw towards left
18:03:24.510000,58.88,1185.93,3.433,5.901499999999965,0.5817165127509989,3.433,yaw towards left
18:03:24.516547,58.87,1197.99,3.3529999999999993,5.361999999999989,0.6253263707571812,3.3529999999999993,yaw towards left
18:03:24.530109,58.62,1182.57,2.310999999999999,5.915000000000009,0.3907016060862207,2.310999999999999,yaw towards left
18:03:24.542926,56.43,1195.0,2.299499999999999,5.232500000000004,0.4394648829431433,2.299499999999999,yaw towards left
18:03:24.554965,54.48,1204.17,1.9054999999999993,5.921500000000014,0.3217934644937929,1.9054999999999993,yaw towards left
18:03:24.567398,54.5,1188.45,1.626999999999999,5.5290000000000195,0.2942665943208524,1.626999999999999,yaw towards left
18:03:24.576293,56.65,1198.93,1.0744999999999982,5.757000000000039,0.1866423484453692,1.0744999999999982,yaw towards left
18:03:24.588688,61.05,1185.01,1.2839999999999985,5.488500000000045,0.2339437004646056,1.2839999999999985,yaw towards left
18:03:24.600269,57.2,1195.89,1.3484999999999978,4.900500000000034,0.2751760024487273,1.3484999999999978,yaw towards left
18:03:24.613403,50.43,1182.54,1.8549999999999975,5.464000000000032,0.3394948755490458,1.8549999999999975,yaw towards left
18:03:24.621272,49.03,1193.23,2.509999999999997,4.81700000000003,0.5210712061448995,2.509999999999997,yaw towards left
18:03:24.633572,51.27,1201.38,2.8344999999999976,5.452500000000032,0.5198532783126971,2.8344999999999976,yaw towards left
18:03:24.644124,54.58,1197.53,2.768499999999998,4.609500000000002,0.6006074411541374,2.768499999999998,yaw towards left
18:03:24.657999,49.9,1203.66,3.179499999999998,5.246000000000004,0.6060808234845588,3.179499999999998,yaw towards left
18:03:24.668424,48.38,1191.55,3.3869999999999982,4.6884999999999994,0.722405886744161,3.3869999999999982,yaw towards left
18:03:24.676256,53.47,1198.95,3.255999999999998,4.199000000000001,0.7754227196951649,3.255999999999998,yaw towards left
18:03:24.691630,53.13,1188.08,3.3119999999999985,4.603499999999985,0.7194525904203344,3.3119999999999985,yaw towards left
18:03:24.694622,71.46,1195.46,4.933499999999997,3.875999999999999,1.2728328173374608,3.875999999999999,yaw towards left
18:03:24.714702,59.95,1200.36,5.6374999999999975,4.218000000000006,1.3365339023233735,4.218000000000006,yaw towards left
18:03:24.722968,55.23,1203.15,5.180999999999998,3.79050000000002,1.3668381480015752,3.79050000000002,yaw towards left
18:03:24.731142,58.95,1205.51,4.9224999999999985,4.287500000000023,1.148104956268215,4.287500000000023,yaw towards left
18:03:24.748877,56.93,1196.04,4.705499999999999,3.7810000000000175,1.244512033853472,3.7810000000000175,yaw towards left
18:03:24.758038,58.06,1199.41,4.899499999999999,3.595500000000038,1.362675566680558,3.595500000000038,yaw towards left
18:03:24.767812,53.42,1191.36,4.706499999999999,3.5140000000000327,1.3393568582811484,3.5140000000000327,yaw towards left
18:03:24.781593,61.91,1195.38,4.697499999999998,3.4245000000000116,1.371733099722582,3.4245000000000116,yaw towards left
18:03:24.793747,53.63,1197.43,4.973999999999998,3.2700000000000045,1.52110091743119,3.2700000000000045,yaw towards left
18:03:24.805782,55.74,1198.26,5.056499999999999,2.663499999999999,1.8984418997559604,2.663499999999999,yaw towards left
18:03:24.814026,51.88,1198.52,3.5759999999999996,2.6549999999999954,1.3468926553672338,2.6549999999999954,yaw towards left
18:03:24.824498,46.29,1193.37,3.7205,2.716000000000008,1.369845360824738,2.716000000000008,yaw towards left
18:03:24.831636,55.83,1194.33,3.532,2.46550000000002,1.4325694585276705,2.46550000000002,yaw towards left
18:03:24.850298,46.04,1189.39,3.904,2.512000000000012,1.5541401273885276,2.512000000000012,yaw towards left
18:03:24.862356,47.59,1190.92,4.295,2.685500000000002,1.5993297337553516,2.685500000000002,yaw towards left
18:03:24.871652,50.38,1190.87,4.324,2.960500000000002,1.460564093903056,2.960500000000002,yaw towards left
18:03:24.880485,52.95,1189.94,4.1115,2.737999999999988,1.501643535427326,2.737999999999988,yaw towards left
18:03:24.896523,45.35,1188.71,4.248000000000001,2.8700000000000045,1.4801393728222978,2.8700000000000045,yaw towards left
18:03:24.907980,40.38,1187.75,4.722,3.115000000000009,1.515890850722307,3.115000000000009,yaw towards left
18:03:24.915035,56.32,1186.85,5.28,3.429000000000019,1.5398075240594842,3.429000000000019,yaw towards left
18:03:24.928927,46.8,1185.72,4.8740000000000006,3.810500000000002,1.27909723133447,3.810500000000002,yaw towards left
18:03:24.941238,52.19,1185.12,4.275,3.756000000000017,1.138178913738014,3.756000000000017,yaw towards left
18:03:24.952900,44.45,1113.43,4.545,10.995499999999993,0.4133509162839346,4.545,yaw towards left
18:03:24.960922,41.13,1121.81,4.287,16.9125,0.2534811529933481,4.287,yaw towards left
18:03:24.972650,50.72,1128.5,3.906499999999999,22.297499999999992,0.1751990133423029,3.906499999999999,yaw towards left
18:03:24.983336,44.29,1138.86,3.857999999999999,26.655500000000007,0.1447356080358649,3.857999999999999,yaw towards left
18:03:24.998858,46.49,1143.02,3.861499999999999,28.369500000000016,0.1361144891520822,3.861499999999999,yaw towards left
18:03:25.010155,44.51,1151.18,3.3824999999999994,28.434000000000037,0.1189596961384256,3.3824999999999994,yaw towards left
18:03:25.015157,37.26,1153.51,3.346,28.760500000000047,0.1163401192607915,3.346,yaw towards left
18:03:25.030325,37.6,1153.72,3.3005000000000004,29.067000000000053,0.1135480097705299,3.3005000000000004,yaw towards left
18:03:25.043648,38.3,1153.49,3.8680000000000008,29.31150000000007,0.1319618579738325,3.8680000000000008,yaw towards left
18:03:25.055190,35.17,1152.87,4.301500000000001,29.49550000000004,0.1458358054618499,4.301500000000001,yaw towards left
18:03:25.062875,33.75,1161.67,4.623500000000002,22.98000000000004,0.2011966927763269,4.623500000000002,yaw towards left
18:03:25.074931,36.03,1159.87,4.209000000000001,17.100000000000044,0.2461403508771924,4.209000000000001,yaw towards left
18:03:25.088314,33.56,1167.58,4.383000000000002,12.729500000000051,0.3443183157233185,4.383000000000002,yaw towards left
18:03:25.093715,29.14,1164.94,4.955000000000001,9.20600000000004,0.5382359330871148,4.955000000000001,yaw towards left
18:03:25.106069,28.49,1161.38,5.609000000000002,7.559500000000048,0.7419802897016954,5.609000000000002,yaw towards left
18:03:25.121675,24.34,1157.96,6.522000000000001,7.247000000000026,0.8999586035600908,6.522000000000001,yaw towards left
18:03:25.134147,22.66,1154.19,6.797500000000001,7.078500000000008,0.9603023239386866,6.797500000000001,yaw towards left
18:03:25.143616,22.65,1164.81,6.979500000000002,6.834999999999991,1.0211411850768122,6.834999999999991,yaw towards left
18:03:25.149637,26.67,1160.08,6.587000000000001,6.26099999999999,1.052068359686953,6.26099999999999,yaw towards left
18:03:25.164300,29.71,1170.2,5.922500000000001,6.5514999999999874,0.9039914523391608,5.922500000000001,yaw towards left
18:03:25.177600,24.92,1164.74,5.5920000000000005,5.7549999999999955,0.971676802780192,5.5920000000000005,yaw towards left
18:03:25.189212,24.6,1158.35,5.519499999999999,5.556999999999993,0.9932517545438196,5.519499999999999,yaw towards left
18:03:25.200638,26.01,1152.97,5.186999999999999,4.925,1.053197969543147,4.925,yaw towards left
18:03:25.211313,38.18,1147.55,5.708,4.958999999999992,1.1510385158298064,4.958999999999992,yaw towards left
18:03:25.223363,39.98,1091.52,6.448499999999998,11.163999999999987,0.5776155499820858,6.448499999999998,yaw towards left
18:03:25.235813,33.91,1093.9,6.1934999999999985,17.305499999999984,0.3578919996532896,6.1934999999999985,yaw towards left
18:03:25.246272,30.19,1117.81,5.293999999999999,20.617999999999984,0.2567659326801825,5.293999999999999,yaw towards left
18:03:25.256082,30.69,1116.36,4.4979999999999976,23.589499999999997,0.1906780559147077,4.4979999999999976,yaw towards left
18:03:25.262552,35.07,1113.4,4.746499999999998,25.452499999999965,0.1864846282290543,4.746499999999998,yaw towards left
18:03:25.280376,34.83,1110.96,4.909999999999998,25.19749999999997,0.1948606012501242,4.909999999999998,yaw towards left
18:03:25.291506,35.1,1108.06,4.716999999999999,25.71149999999998,0.1834587635882777,4.716999999999999,yaw towards left
18:03:25.296986,39.87,1088.66,5.0894999999999975,27.592499999999973,0.1844522968197881,5.0894999999999975,yaw towards left
18:03:25.314086,34.04,1088.0,5.125999999999999,28.967499999999973,0.1769569344955554,5.125999999999999,yaw towards left
18:03:25.322833,41.69,1116.7,4.528499999999998,28.519999999999985,0.1587833099579243,4.528499999999998,yaw towards left
18:03:25.334582,34.47,1111.53,3.094999999999999,21.88499999999999,0.1414210646561572,3.094999999999999,yaw towards left
18:03:25.341247,33.53,1104.99,2.4499999999999993,16.27349999999999,0.1505515101238209,2.4499999999999993,yaw towards left
18:03:25.355448,30.31,1099.97,2.6839999999999993,13.442499999999995,0.1996652408406174,2.6839999999999993,yaw towards left
18:03:25.372341,27.66,1094.9,3.308999999999999,11.214999999999986,0.295051270619706,3.308999999999999,yaw towards left
18:03:25.380953,30.77,1088.89,3.194499999999999,10.646000000000004,0.3000657523952656,3.194499999999999,yaw towards left
18:03:25.393559,33.08,1083.89,3.0119999999999987,11.387999999999987,0.2644889357218126,3.0119999999999987,yaw towards left
18:03:25.403089,34.76,1117.49,3.0364999999999984,12.711499999999978,0.2388781811745273,3.0364999999999984,yaw towards left
18:03:25.415351,38.29,1108.83,2.994999999999999,10.99449999999997,0.2724089317385972,2.994999999999999,yaw towards left
18:03:25.447773,31.53,1023.43,3.081499999999999,16.74849999999998,0.1839866256679704,3.081499999999999,yaw towards left
18:03:25.449014,30.22,1028.05,2.615999999999999,22.96799999999997,0.1138975966562174,2.615999999999999,yaw towards left
18:03:25.485576,29.28,1030.74,2.7849999999999993,29.05499999999996,0.0958526931681295,2.7849999999999993,yaw towards left
18:03:25.494942,29.01,1032.23,2.825999999999999,33.84549999999998,0.0834970675569869,2.825999999999999,yaw towards left
18:03:25.496181,27.51,1033.17,2.690499999999999,35.427499999999995,0.0759438289464398,2.690499999999999,yaw towards left
18:03:25.496181,32.69,1076.92,2.145499999999999,36.4525,0.0588574171867498,2.145499999999999,yaw towards left
18:03:25.496181,36.03,1071.82,2.188999999999999,37.02600000000001,0.0591206179441473,2.188999999999999,yaw towards left
18:03:25.504677,40.27,1088.52,2.9345,39.27400000000003,0.0747186433772978,2.9345,yaw towards left
18:03:25.512203,54.02,1081.34,5.0280000000000005,40.153000000000034,0.1252210295619255,5.0280000000000005,yaw towards left
18:03:25.530395,56.35,1074.45,7.0015,41.71350000000005,0.1678473395903003,7.0015,yaw towards left
18:03:25.542624,52.66,1067.38,8.654,34.03050000000003,0.2543012885499769,8.654,yaw towards left
18:03:25.549596,52.49,1061.04,9.879499999999998,27.948000000000025,0.3534957778731927,9.879499999999998,yaw towards left
18:03:25.563893,60.39,1101.71,11.0935,24.690000000000033,0.4493114621304165,11.0935,yaw towards left
18:03:25.575039,57.51,1090.45,11.434,20.75050000000003,0.5510228669188686,11.434,yaw towards left
18:03:25.580354,57.97,1037.38,11.598499999999998,22.045000000000005,0.5261283737809025,11.598499999999998,yaw towards left
18:03:25.592443,52.8,1035.55,11.5055,23.616000000000007,0.4871908875338752,11.5055,yaw towards left
18:03:25.605916,50.9,1033.23,11.364499999999998,25.452,0.4465071507150714,11.364499999999998,yaw towards left
18:03:25.613648,51.55,1030.05,10.7345,25.265499999999996,0.4248679028715046,10.7345,yaw towards left
18:03:25.630143,44.8,1027.03,9.336499999999996,24.599,0.379547949103622,9.336499999999996,yaw towards left
18:03:25.640641,47.56,1075.07,7.413999999999999,24.989499999999975,0.296684607535165,7.413999999999999,yaw towards left
18:03:25.654387,43.02,1065.55,6.483999999999997,26.401499999999988,0.2455921065090998,6.483999999999997,yaw towards left
18:03:25.664561,37.53,949.96,6.419499999999997,34.196000000000005,0.1877266346941161,6.419499999999997,yaw towards left
18:03:25.675229,30.73,958.67,6.868499999999997,38.91049999999999,0.1765204764780714,6.868499999999997,yaw towards left
18:03:25.685030,27.03,965.31,8.289999999999997,44.06699999999997,0.1881226314475685,8.289999999999997,yaw towards left
18:03:25.692152,22.27,969.76,9.990999999999998,46.114499999999985,0.2166563662188682,9.990999999999998,yaw towards left
18:03:25.709065,20.72,973.25,11.8855,45.04499999999998,0.2638583638583639,11.8855,yaw towards left
18:03:25.722358,21.18,970.99,12.9295,41.389499999999984,0.3123859916162313,12.9295,yaw towards left
18:03:25.730218,28.3,972.83,12.864999999999998,38.06549999999997,0.3379700778920547,12.864999999999998,yaw towards left
18:03:25.740644,34.95,965.37,12.6155,36.34799999999997,0.3470754924617588,12.6155,yaw towards left
18:03:25.754720,29.44,968.01,12.171,33.84949999999998,0.3595621796481486,12.171,yaw towards left
18:03:25.764085,26.76,969.06,11.3615,32.26799999999999,0.35209805379943,11.3615,yaw towards left
18:03:25.776460,27.5,969.23,10.0155,23.625999999999976,0.4239185642935753,10.0155,yaw towards left
18:03:25.788952,22.5,969.09,8.605,16.06099999999999,0.5357698773426316,8.605,yaw towards left
18:03:25.799894,18.1,967.35,7.343000000000001,9.609000000000004,0.7641794151316472,7.343000000000001,yaw towards left
18:03:25.812807,23.39,966.49,5.347500000000002,3.98950000000001,1.3403935330241858,3.98950000000001,yaw towards left
18:03:25.821846,32.15,914.45,3.894000000000001,6.709000000000003,0.580414368758384,3.894000000000001,yaw towards left
18:03:25.832924,31.84,919.9,2.9930000000000003,11.374000000000011,0.2631440126604534,2.9930000000000003,yaw towards left
18:03:25.844837,28.53,923.37,2.9230000000000005,15.637000000000024,0.1869284389588793,2.9230000000000005,yaw towards left
18:03:25.857827,25.71,926.06,2.5215000000000005,19.222500000000036,0.1311744049941472,2.5215000000000005,yaw towards left
18:03:25.865869,32.44,927.64,2.9955,21.077500000000043,0.1421183726722805,2.9955,yaw towards left
18:03:25.876161,38.17,927.83,3.9205,21.034500000000047,0.1863842734555131,3.9205,yaw towards left
18:03:25.890304,33.1,928.19,4.1885,21.07150000000005,0.1987755973708559,4.1885,yaw towards left
18:03:25.901611,28.41,926.46,3.9265,21.123500000000035,0.1858830212796171,3.9265,yaw towards left
18:03:25.911893,34.36,925.64,3.51,21.00450000000003,0.1671070484896091,3.51,yaw towards left
18:03:25.924725,51.37,923.36,5.249,20.995000000000015,0.2500119075970467,5.249,yaw towards left
18:03:25.934956,49.21,921.19,6.391,16.05250000000001,0.398131132222395,6.391,yaw towards left
18:03:25.945430,42.03,918.66,6.827,11.993499999999994,0.5692249968733066,6.827,yaw towards left
18:03:25.960835,38.58,915.38,7.007,8.68549999999998,0.8067468769788747,7.007,yaw towards left
18:03:25.967783,46.0,912.82,7.6275,5.767499999999961,1.3224967490247164,5.767499999999961,yaw towards left
18:03:25.980344,62.54,908.63,9.32,5.189499999999964,1.7959340976972855,5.189499999999964,yaw towards left
18:03:25.993559,58.21,905.74,9.724,6.598499999999956,1.4736682579374198,6.598499999999956,yaw towards left
18:03:26.003950,51.05,901.72,9.776999999999996,8.082999999999947,1.2095756526042387,8.082999999999947,yaw towards left
18:03:26.014551,43.47,898.1,10.013,9.623999999999956,1.040419783873654,9.623999999999956,yaw towards left
18:03:26.026709,36.18,894.36,10.919,11.198499999999957,0.9750413001741344,10.919,yaw towards left
18:03:26.031963,30.9,890.53,10.395,12.614999999999965,0.824019024970276,10.395,yaw towards left
18:03:26.050783,48.4,887.07,9.1175,13.814999999999976,0.6599710459645325,9.1175,yaw towards left
18:03:26.057885,46.63,882.58,8.318999999999999,14.828999999999985,0.5609953469552909,8.318999999999999,yaw towards left
18:03:26.071723,40.36,879.02,8.683000000000002,15.502999999999997,0.5600851448106821,8.683000000000002,yaw towards left
18:03:26.080275,34.69,874.45,8.9565,16.134499999999992,0.55511481607735,8.9565,yaw towards left
18:03:26.094681,39.51,870.82,6.973500000000001,16.567999999999973,0.4209017382906816,6.973500000000001,yaw towards left
18:03:26.105027,54.78,866.66,6.8405000000000005,16.965999999999987,0.4031887304019808,6.8405000000000005,yaw towards left
18:03:26.116839,57.71,862.48,8.075500000000002,17.267999999999983,0.46765693768821,8.075500000000002,yaw towards left
18:03:26.127746,48.02,858.76,8.114500000000001,17.465499999999984,0.4646016432395298,8.114500000000001,yaw towards left
18:03:26.138190,40.82,854.06,7.2625,17.686499999999988,0.4106239222005487,7.2625,yaw towards left
18:03:26.147472,41.47,850.35,6.1370000000000005,17.859999999999992,0.3436170212765959,6.1370000000000005,yaw towards left
18:03:26.162090,45.12,845.67,5.953,18.083999999999993,0.3291860207918604,5.953,yaw towards left
18:03:26.174069,51.91,841.98,6.782999999999999,18.214999999999986,0.3723853966511119,6.782999999999999,yaw towards left
18:03:26.185471,45.27,837.33,6.194999999999999,18.401999999999976,0.3366481904140858,6.194999999999999,yaw towards left
18:03:26.194304,39.88,833.22,5.690499999999999,18.500999999999976,0.3075779687584458,5.690499999999999,yaw towards left
18:03:26.206276,44.19,829.12,5.5504999999999995,18.591999999999985,0.2985423838209985,5.5504999999999995,yaw towards left
